# ECG_1,ECG_2
-1.120600664463765883e-01,-1.111988399187656407e-01,-1.105832858494691512e-01,-1.103348362201176519e-01,-1.105679529761755125e-01,-1.113904586190050949e-01,-1.129031275335538043e-01,-1.151984706391524782e-01,-1.183588287846308318e-01,-1.224540681117962937e-01,-1.275393133768371046e-01,-1.336532313055330268e-01,-1.408173581282436415e-01,-1.490368413666526004e-01,-1.583027535953424048e-01,-1.685958843187852219e-01,-1.798916743424349984e-01,-1.921657369540827054e-01,-2.053992003648883735e-01,-2.195829343918604404e-01,-2.347196873286421792e-01,-2.508233545879113846e-01,-2.679150309660815465e-01,-2.860160471941721183e-01,-3.051386962981746942e-01,-3.252756930422084913e-01,-3.463895363746650746e-01,-3.684028936650895480e-01,-3.911909795118657662e-01,-4.145767391165205984e-01,-4.383294802920267297e-01,-4.621673702870111033e-01,-4.857638587907996408e-01,-5.087576154671248352e-01,-5.307650794035047026e-01,-5.513943513262297147e-01,-5.702590320924877387e-01,-5.869907575171848801e-01,-6.012495408254024953e-01,-6.127314948866381394e-01,-6.211739594075548210e-01,-6.263584342562624752e-01,-6.281119747326728842e-01,-6.263078095499151621e-01,-6.208659009285367736e-01,-6.117540164482682119e-01,-5.989896675279975380e-01,-5.826430117318945889e-01,-5.628405249086576578e-01,-5.397689504114904224e-01,-5.136787802711423323e-01,-4.848863764672105003e-01,-4.537738248667302909e-01,-4.207857055808483793e-01,-3.864221250574069733e-01,-3.512275957612643884e-01,-3.157757118051748302e-01,-2.806500507954614032e-01,-2.464222510450380654e-01,-2.136286678211353207e-01,-1.827473375509116593e-01,-1.541771300588796745e-01,-1.282209023849850693e-01,-1.050741730467923962e-01,-8.482036409124600607e-02,-6.743309539078143344e-02,-5.278542498500070346e-02,-4.066533493159639467e-02,-3.079619068525582884e-02,-2.286042454662826073e-02,-1.652440303684921466e-02,-1.146238836094694638e-02,-7.377685536858529999e-03,-4.019426693245749423e-03,-1.193917041917472166e-03,1.230008008223512465e-03,3.321637258480748638e-03,5.094576312559596226e-03,6.517563493431846253e-03,7.528621913666419529e-03,8.050972040005769520e-03,8.008953126467342754e-03,7.342194200921072118e-03,6.016505372925317480e-03,4.030455375933133209e-03,1.417285039094029996e-03,-1.757493981668366984e-03,-5.401926652908168106e-03,-9.405685100459450221e-03,-1.364912964699472805e-02,-1.801219800867458545e-02,-2.238215319425719205e-02,-2.665947966311578432e-02,-3.076151484537378161e-02,-3.462370978968110774e-02,-3.819869676304270267e-02,-4.145357538003201225e-02,-4.436599275192158742e-02,-4.691967535928937699e-02,-4.910006737979839830e-02,-5.089065035682526633e-02,-5.227038241198460333e-02,-5.321252668666782287e-02,-5.368496020179989309e-02,-5.365188252599892293e-02,-5.307669380932489300e-02,-5.192569910573117953e-02,-5.017223111083003034e-02,-4.780076901831487035e-02,-4.481066325507460091e-02,-4.121914511991514596e-02,-3.706339004084018007e-02,-3.240149060249952750e-02,-2.731226169792489236e-02,-2.189384091562594087e-02,-1.626107511809350009e-02,-1.054171851848543368e-02,-4.871521976409344187e-03,6.116308590621809260e-04,5.774298083536005127e-03,1.049444310824260498e-02,1.466841260817430131e-02,1.821753562880732910e-02,2.109396007214630470e-02,2.328536388265284307e-02,2.481819650518947082e-02,2.575911935870638797e-02,2.621433320492137439e-02,2.632652121921556787e-02,2.626921134143123462e-02,2.623847778068142886e-02,2.644206693182195311e-02,2.708625386232284965e-02,2.836100778460982214e-02,3.042434510475975490e-02,3.338703642523079690e-02,3.729906356516036331e-02,4.213935149985149897e-02,4.781028587409474895e-02,5.413832054930968474e-02,6.088153039564793423e-02,6.774424961408066770e-02,7.439801111856222948e-02,8.050702994975805771e-02,8.575568446665116085e-02,8.987504867281199961e-02,9.266560494293418770e-02,9.401376573954745020e-02,9.390062091357181950e-02,9.240226039468482644e-02,8.968197224175708526e-02,8.597545968087950963e-02,8.157084684601575986e-02,7.678558733191845342e-02,7.194245782862430938e-02,6.734666838660907651e-02,6.326581988427246173e-02,5.991404095844152927e-02,5.744117853983216754e-02,5.592743403569421651e-02,5.538337316565392771e-02,5.575483422107355147e-02,5.693194785984135448e-02,5.876127215556836703e-02,6.105993288270984698e-02,6.363062723238475937e-02,6.627638660835516449e-02,6.881409024821476261e-02,7.108586609155895242e-02,7.296769947100324727e-02,7.437478624259769022e-02,7.526340633213524089e-02,7.562934328869898304e-02,7.550311816247469443e-02,7.494252541553662883e-02,7.402314274037680164e-02,7.282762790970981337e-02,7.143470848572855414e-02,6.990881008747862335e-02,6.829125406408323440e-02,6.659388634067378576e-02,6.479587289499216807e-02,6.284419821597148070e-02,6.065810643887072084e-02,5.813732213998548670e-02,5.517341470915594626e-02,5.166320619555554716e-02,4.752275966510258881e-02,4.270029599031788248e-02,3.718641392212548857e-02,3.102024793125980270e-02,2.429068160787551528e-02,1.713239544213159687e-02,9.717272036801687454e-03,2.242364628598102552e-03,-5.083914359114063281e-03,-1.205563541585354462e-02,-1.848173805955152099e-02,-2.419595416098584140e-02,-2.906378295087139185e-02,-3.298647899375425907e-02,-3.590234391679128501e-02,-3.778581820550230841e-02,-3.864495587294701495e-02,-3.851784742652647475e-02,-3.746846309012154264e-02,-3.558225348990549930e-02,-3.296170050131628365e-02,-2.972187893242013434e-02,-2.598598338452574527e-02,-2.188070019731453569e-02,-1.753126374991235623e-02,-1.305603169981147532e-02,-8.560451452060163779e-03,-4.130380926365338073e-03,1.751191308236085126e-04,4.331183374777594977e-03,8.354115222645355776e-03,1.230701001184548310e-02,1.630280393871889541e-02,2.050330938890800037e-02,2.511276016132579780e-02,3.036461275315179009e-02,3.650085773654534321e-02,4.374384845036540653e-02,5.226157274070916681e-02,6.212828382448648545e-02,7.328336991218688257e-02,8.549217444452054948e-02,9.831307587537839454e-02,1.110754116086072885e-01,1.228727302921344411e-01,1.325753565520556565e-01,1.388653460297214759e-01,1.402955911757706731e-01,1.353731018416844678e-01,1.226643392128069776e-01,1.009179955114918731e-01,6.919794548472006646e-02,2.701650226394135962e-02,-2.554408918484479124e-02,-8.773543209996315095e-02,-1.580858501702339103e-01,-2.343949641613627399e-01,-3.137895542988748399e-01,-3.928453218312362161e-01,-4.677725053505132902e-01,-5.346556517696552380e-01,-5.897302377099027382e-01,-6.296724682571738230e-01,-6.518745312935971814e-01,-6.546766728061641505e-01,-6.375301078630308815e-01,-6.010709316810123326e-01,-5.470942505925305843e-01,-4.784286364947595294e-01,-3.987222942668078307e-01,-3.121624302439087728e-01,-2.231567134947261832e-01,-1.360092905964436771e-01,-5.462302852012864557e-02,1.774523271984110306e-02,7.865762718342331206e-02,1.265871737145088660e-01,1.609289092596005444e-01,1.819386521929991785e-01,1.906138056123886371e-01,1.885340815821753280e-01,1.776809410177819792e-01,1.602532662845507494e-01,1.384940007643108151e-01,1.145389597878144622e-01,9.029532676818255443e-02,6.735384034938113329e-02,4.693553177354606309e-02,2.987120799847423763e-02,1.660980335710874126e-02,7.250310965623927434e-03,1.591255592186882617e-03,-8.084820082446680933e-04,-5.633364769696870555e-04,1.605644082753703017e-03,4.933702768657191595e-03,8.668383708708794766e-03,1.211661042732575452e-02,1.468174101591653360e-02,1.589026985514314233e-02,1.540840218908923892e-02,1.304909894531035633e-02,8.770418048151540358e-03,2.666114064553505580e-03,-5.050453542852086086e-03,-1.406796892711725117e-02,-2.400311383269644605e-02,-3.442941603967626663e-02,-4.490741733509621275e-02,-5.501449693753127090e-02,-6.437273546679933567e-02,-7.267339069818659625e-02,-7.969682641261252587e-02,-8.532703528874219234e-02,-8.956019688912666976e-02,-9.250700051566537740e-02,-9.438873260462032899e-02,-9.552737394372037838e-02,-9.633017148360224768e-02,-9.726934493453485986e-02,-9.885776556374718804e-02,-1.016216131578520088e-01,-1.060711878336046687e-01,-1.126712319598651146e-01,-1.218122950644468100e-01,-1.337848223467684727e-01,-1.487577195680900299e-01,-1.667630896815254227e-01,-1.876885992030050132e-01,-2.112784889217695083e-01,-2.371436154206560676e-01,-2.647801634675155391e-01,-2.935958859155202161e-01,-3.229419879207794941e-01,-3.521481682026886273e-01,-3.805579591784007398e-01,-4.075614371392328739e-01,-4.326226243402430116e-01,-4.552994676190712520e-01,-4.752551124678263683e-01,-4.922601994646393919e-01,-5.061869333849130514e-01,-5.169965400251497201e-01,-5.247222998286160678e-01,-5.294505721512363650e-01,-5.313021100719592660e-01,-5.304155700740343926e-01,-5.269345247822831979e-01,-5.209985822383702558e-01,-5.127384993199248786e-01,-5.022745513528270589e-01,-4.897169918841160485e-01,-4.751673129758746117e-01,-4.587192672866952647e-01,-4.404592029806247422e-01,-4.204660098402938084e-01,-3.988116114048149141e-01,-3.755632365503616676e-01,-3.507885655281304249e-01,-3.245642934611520647e-01,-2.969878034507931752e-01,-2.681906916476102243e-01,-2.383520976105308609e-01,-2.077093978532245644e-01,-1.765639232631885380e-01,-1.452799104760116866e-01,-1.142757584047384006e-01,-8.400770578612638817e-02,-5.494715267468348874e-02,-2.755384958603342149e-02,-2.247879040488620639e-03,2.061637521310788479e-02,4.077128763974274817e-02,5.804979073689926772e-02,7.239070941266920189e-02,8.383564986002758901e-02,9.251853528530126769e-02,9.864960632127811602e-02,1.024960420163173042e-01,1.043613644139567004e-01,1.045655537839848825e-01,1.034274098472525993e-01,1.012502238113581893e-01,9.831134085300810566e-02,9.485574293246795685e-02,9.109340164548061780e-02,8.719985763044416083e-02,8.331928077007098865e-02,7.956915103325924721e-02,7.604566837616058561e-02,7.282904506955206747e-02,6.998794532958807491e-02,6.758250302638690865e-02,6.566555645620239523e-02,6.428197922726008873e-02,6.346624864951361245e-02,6.323866425725419016e-02,6.360088327837212785e-02,6.453163195547242936e-02,6.598352472624412213e-02,6.788183405730918718e-02,7.012580160471872104e-02,7.259271703869939196e-02,7.514459491570985028e-02,7.763692696422594408e-02,7.992872031647231534e-02,8.189286419469873901e-02,8.342580085822604019e-02,8.445551973345286068e-02,8.494705463174073712e-02,8.490493077041930126e-02,8.437234012614225342e-02,8.342716267916552852e-02,8.217524402797359018e-02,8.074155442742461664e-02,7.925998473183056003e-02,7.786259535266744358e-02,7.666914508350190782e-02,7.577769846139725818e-02,7.525704074643492503e-02,7.514151084359112220e-02,7.542869346284035437e-02,7.608020294551634533e-02,7.702556058861212418e-02,7.816893366183448599e-02,7.939828141293447938e-02,8.059624888472047277e-02,8.165196871708009507e-02,8.247278370839451755e-02,8.299480611635932925e-02,8.319120666887702686e-02,8.307720178145801271e-02,8.271090770276767756e-02,8.218957927445133538e-02,8.164124842785587532e-02,8.121236839574741406e-02,8.105264392077163316e-02,8.129866558784649977e-02,8.205818761627182989e-02,8.339686265658723119e-02,8.532897702020424135e-02,8.781324797246013725e-02,9.075412589655877660e-02,9.400839909306286934e-02,9.739633837463367028e-02,1.007162114269095909e-01,1.037607568231918714e-01,1.063341143702208474e-01,1.082677397101052402e-01,1.094339756164262739e-01,1.097562006701686410e-01,1.092148047821979301e-01,1.078486101860593599e-01,1.057517213487012137e-01,1.030661159220421230e-01,9.997057145024883240e-02,9.666676617392146176e-02,9.336360581438264694e-02,9.026100521652190289e-02,8.753446592277606964e-02,8.532180014311042948e-02,8.371323057070967355e-02,8.274583383577485685e-02,8.240289441707163154e-02,8.261821769789878811e-02,8.328488569564718169e-02,8.426744104093893128e-02,8.541615383937523065e-02,8.658189462185301999e-02,8.763018027728183834e-02,8.845314008070070955e-02,8.897843086553540448e-02,8.917447533023903361e-02,8.905176042986431839e-02,8.866027358329871266e-02,8.808344739677387292e-02,8.742921719239157841e-02,8.681896681902025181e-02,8.637524845363966919e-02,8.620921482601334729e-02,8.640870137901802972e-02,8.702784560761717136e-02,8.807903725196081224e-02,8.952786395649586781e-02,9.129155850160555752e-02,9.324126565913699871e-02,9.520822368795280044e-02,9.699369469334964688e-02,9.838218817605325073e-02,9.915722454900843807e-02,9.911860782899105382e-02,9.809994554973408554e-02,9.598499328057867597e-02,9.272133982587715817e-02,8.833002953039024996e-02,8.290998560875301182e-02,7.663656047464742493e-02,6.975412687306695170e-02,6.256321120742207309e-02,5.540314433173492564e-02,4.863151582500018638e-02,4.260187445944944168e-02,3.764115456023748446e-02,3.402826174177221025e-02,3.197515140732769962e-02,3.161159549342966446e-02,3.297465704722522123e-02,3.600366708117908737e-02,4.054121259665125626e-02,4.634029555467062550e-02,5.307741445316248308e-02,6.037086274748477976e-02,6.780305329104849288e-02,7.494521950534045740e-02,8.138251341110361303e-02,8.673743670306718889e-02,9.068976737524353515e-02,9.299164187599436027e-02,9.347710387703973833e-02,9.206609617086049246e-02,8.876342897280568855e-02,8.365362275230256439e-02,7.689267109216579854e-02,6.869772762714926317e-02,5.933554764297914452e-02,4.911027050983722553e-02,3.835087291226657591e-02,2.739841307203273041e-02,1.659307280528674045e-02,6.261014804277015289e-03,-3.298794992238708590e-03,-1.182742496945525697e-02,-1.911783930596943487e-02,-2.502493281716142853e-02,-2.947280403583708158e-02,-3.245841673059329108e-02,-3.405103467041807608e-02,-3.438714621782223979e-02,-3.366097741234986424e-02,-3.211108843785140388e-02,-3.000391919688825959e-02,-2.761544844973257487e-02,-2.521231742896966332e-02,-2.303382566762936928e-02,-2.127614194748083526e-02,-2.007990605021603425e-02,-1.952214192122976588e-02,-1.961306795603055819e-02,-2.029798901688090185e-02,-2.146401847592196988e-02,-2.295095468500276195e-02,-2.456527508772732293e-02,-2.609594864354678606e-02,-2.733061793087682850e-02,-2.807066784755597733e-02,-2.814378322621870557e-02,-2.741282078425325008e-02,-2.578020309125480386e-02,-2.318758498499131834e-02,-1.961120938980881467e-02,-1.505408846071406778e-02,-9.536829159457145544e-03,-3.089473620104483953e-03,4.252973486954598342e-03,1.244875351013057657e-02,2.143934180788480137e-02,3.113041869783442217e-02,4.136458463510183509e-02,5.188830025782525945e-02,6.231716505792354865e-02,7.210496582406089594e-02,8.052271608098589273e-02,8.665398499755401496e-02,8.941204363875372707e-02,8.758269892459781547e-02,7.989424493254830562e-02,6.511297525634468508e-02,4.215946956314958055e-02,1.023769124587201734e-02,-3.103390090336004964e-02,-8.150222104406740220e-02,-1.403846493880915314e-01,-2.062135842889764314e-01,-2.768331189931589886e-01,-3.494571551253601305e-01,-4.207930748761941064e-01,-4.872283304966222306e-01,-5.450696255916993582e-01,-5.908167314980183882e-01,-6.214465339852836001e-01,-6.346787586799970127e-01,-6.291939265810559956e-01,-6.047770471281825877e-01,-5.623674421324362793e-01,-5.040053347529247496e-01,-4.326781836188480224e-01,-3.520823539056974205e-01,-2.663264233425736704e-01,-1.796092235627002598e-01,-9.590740135711983694e-02,-1.870379068563236824e-02,4.921974167418491364e-02,1.059113001112018670e-01,1.502964851282324876e-01,1.821501218187632221e-01,2.020045195207529898e-01,2.110105939251642471e-01,2.107698225309247719e-01,2.031547963634854348e-01,1.901345845056921779e-01,1.736186234353312985e-01,1.553296268379851797e-01,1.367122847020210141e-01,1.188805422205059248e-01,1.026023640141619231e-01,8.831747454042512824e-02,7.618095315786255206e-02,6.612397721931506656e-02,5.792253458434981628e-02,5.126551761992186040e-02,4.581510465766695100e-02,4.125447979660146897e-02,3.732038950384820863e-02,3.382037085837003715e-02,3.063633451113689093e-02,2.771732799336325270e-02,2.506474326659917373e-02,2.271314382413940763e-02,2.070950751840573700e-02,1.909319595835031608e-02,1.787846512101576996e-02,1.704085834920900100e-02,1.650838225808168996e-02,1.615796335481079621e-02,1.581731932237479682e-02,1.527204673312365646e-02,1.427741329975272533e-02,1.257403776156868630e-02,9.906345411021123815e-03,6.042415749310664497e-03,7.936137522610853257e-04,-5.967754212320632023e-03,-1.429456470123968356e-02,-2.415649696000728500e-02,-3.543860500918157713e-02,-4.794783836112780084e-02,-6.142782072278044070e-02,-7.558129411698567834e-02,-9.009860411342206221e-02,-1.046896141963763877e-01,-1.191157099920601425e-01,-1.332182561966508971e-01,-1.469400570441580511e-01,-1.603369917880595463e-01,-1.735779412088441220e-01,-1.869322774437541801e-01,-2.007454533413410847e-01,-2.154044860136961892e-01,-2.312962540306323367e-01,-2.487623929034245007e-01,-2.680550781378594483e-01,-2.892980636192299393e-01,-3.124569651707339579e-01,-3.373219507533044004e-01,-3.635047775366971323e-01,-3.904506373287160992e-01,-4.174637490889286928e-01,-4.437443074694349954e-01,-4.684334421203954490e-01,-4.906623502636971446e-01,-5.096017320871529810e-01,-5.245080172615979031e-01,-5.347635055667482318e-01,-5.399083081491820035e-01,-5.396627272731624458e-01,-5.339393623391122112e-01,-5.228447547765672221e-01,-5.066708035524805087e-01,-4.858765382954507994e-01,-4.610611875192723308e-01,-4.329298869225922108e-01,-4.022538662220498940e-01,-3.698274948675308593e-01,-3.364250500272593092e-01,-3.027603532314582790e-01,-2.694523858444737296e-01,-2.369995849777738750e-01,-2.057647685515122671e-01,-1.759716380328163188e-01,-1.477126906809627382e-01,-1.209672655090447968e-01,-9.562746348162168286e-02,-7.152894658904448977e-02,-4.848325597604235399e-02,-2.630837022166451766e-02,-4.854732648441488496e-03,1.597520506997808509e-02,3.621492852086957703e-02,5.582940943826716906e-02,7.471765849712229401e-02,9.272118661034542408e-02,1.096369889020192279e-01,1.252335562864632934e-01,1.392684626323029973e-01,1.515062296556131394e-01,1.617353873432135491e-01,1.697838806473374040e-01,1.755321906518743924e-01,1.789237165162303467e-01,1.799720904794160636e-01,1.787651779129361684e-01,1.754655717936674242e-01,1.703074554647436845e-01,1.635898005615956941e-01,1.556659971534051501e-01,1.469301800619553233e-01,1.378007154006299917e-01,1.287015387502356556e-01,1.200422736713891714e-01,1.121982658016042050e-01,1.054917872550887731e-01,1.001756598945110766e-01,9.642042020236334110e-02,9.430594022521514297e-02,9.381816064179325509e-02,9.485129185988137868e-02,9.721549313466869291e-02,1.006496551900015191e-01,1.048385224482998729e-01,1.094330522869261108e-01,1.140726739326798356e-01,1.184080026549393927e-01,1.221225736529163441e-01,1.249522548586295967e-01,1.267011570921851571e-01,1.272530788498421883e-01,1.265778034152962028e-01,1.247319011240437814e-01,1.218540559407890467e-01,1.181552962372889731e-01,1.139048270345913716e-01,1.094124102613490551e-01,1.050084157154701353e-01,1.010227773663933959e-01,9.776414587452481042e-02,9.550052446317160160e-02,9.444259464846943564e-02,9.473076346479603060e-02,9.642669243554177760e-02,9.950972308212217843e-02,1.038782396895882171e-01,1.093556624065881305e-01,1.157004886693741852e-01,1.226196220244813173e-01,1.297841431933082768e-01,1.368466688800071274e-01,1.434594820673448512e-01,1.492926776060979621e-01,1.540516279266305744e-01,1.574931185881865980e-01,1.594395185390355962e-01,1.597903294877190405e-01,1.585304108641575338e-01,1.557341278121370243e-01,1.515646653941805644e-01,1.462678573092577317e-01,1.401601620456555952e-01,1.336109218092129125e-01,1.270197200252224656e-01,1.207903805424187654e-01,1.153037444573760950e-01,1.108916584694470547e-01,1.078145367787769898e-01,1.062444551350706645e-01,1.062551198168745631e-01,1.078193457220749385e-01,1.108139457125287552e-01,1.150312278354281292e-01,1.201957055135956520e-01,1.259842602613029106e-01,1.320479132112275800e-01,1.380335162695909001e-01,1.436039645211750759e-01,1.484558695397706907e-01,1.523339671295536324e-01,1.550418366521987279e-01,1.564487690683078192e-01,1.564928333517488224e-01,1.551803590528181842e-01,1.525821810728125449e-01,1.488270846723219465e-01,1.440929475028010220e-01,1.385961044339694692e-01,1.325794643726030952e-01,1.262998933309747440e-01,1.200153571939606839e-01,1.139723067152415975e-01,1.083937958522387945e-01,1.034688441717919044e-01,9.934355736958791483e-02,9.611447891136133681e-02,9.382455514612669800e-02,9.246197690388534285e-02,9.196203820879599033e-02,9.221203218187846995e-02,9.305906193358651213e-02,9.432044711569052831e-02,9.579615032557692311e-02,9.728238138420210179e-02,9.858534319876791074e-02,9.953402034843915336e-02,9.999099120654464379e-02,9.986044430509349867e-02,9.909286896415954449e-02,9.768623217026445316e-02,9.568379941913751630e-02,9.316905067025418874e-02,9.025833888755610546e-02,8.709202349108836894e-02,8.382480398011052380e-02,8.061591726549338643e-02,7.761977810479607498e-02,7.497755001475504832e-02,7.281003379955293398e-02,7.121214871390414702e-02,7.024915915863277904e-02,6.995467557053471064e-02,7.033034232535678720e-02,7.134702933942428660e-02,7.294727770415740387e-02,7.504871798475132305e-02,7.754818112705785804e-02,8.032625159418288474e-02,8.325206522042782886e-02,8.618822246178511892e-02,8.899575885450852764e-02,9.153917429735188016e-02,9.369155840811847769e-02,9.533984991064266279e-02,9.639022623802304124e-02,9.677353487039704050e-02,9.645056033761226222e-02,9.541678952743093411e-02,9.370621682761995364e-02,9.139364433785265862e-02,8.859490437516714945e-02,8.546448078270402204e-02,8.219014104616359506e-02,7.898440837147224780e-02,7.607298532738533681e-02,7.368056318886180567e-02,7.201478170423411540e-02,7.124940763785089781e-02,7.150804354350014103e-02,7.284982794872488232e-02,7.525860795977237783e-02,7.863691923370762227e-02,8.280577981387947373e-02,8.751081654405570842e-02,9.243465935679621992e-02,9.721494324559480649e-02,1.014667256554522973e-01,1.048077072729901998e-01,1.068843596528212814e-01,1.073969265453482702e-01,1.061212930572692503e-01,1.029259216017910650e-01,9.778242961776238695e-02,9.076889578134661463e-02,8.206557652865267838e-02,7.194334551730963145e-02,6.074579966183223795e-02,4.886656645600914728e-02,3.672383010326384783e-02,2.473437348512188411e-02,1.328942506541299154e-02,2.734276579895701664e-03,-6.646950727712968437e-03,-1.464074464356060479e-02,-2.110791619829571059e-02,-2.598223246379584989e-02,-2.926497374854405975e-02,-3.101657815277971547e-02,-3.134652647447234985e-02,-3.040249045609074927e-02,-2.835956181929025904e-02,-2.541013831021382563e-02,-2.175480189128258662e-02,-1.759431421290004807e-02,-1.312269718597529854e-02,-8.521269408019173722e-03,-3.953466690452660422e-03,4.397253970662914901e-04,4.543869301754103335e-03,8.274794105386073378e-03,1.158195490391229071e-02,1.445136366006434525e-02,1.690791533725750223e-02,1.901681520522762597e-02,2.088369967705405381e-02,2.265295519108550398e-02,2.450369742895633363e-02,2.664288962564156926e-02,2.929516006851579091e-02,3.268902847053084537e-02,3.703947323546698256e-02,4.252707133120509769e-02,4.927431701173353579e-02,5.732015705716079351e-02,6.659423254952979987e-02,7.689274074584510899e-02,8.785817187938768646e-02,9.896539131495507569e-02,1.095166039862387752e-01,1.186476461363663581e-01,1.253477828109448300e-01,1.284947082046078992e-01,1.269056918223978592e-01,1.194047389995187697e-01,1.049042358748683568e-01,8.249788461211625401e-02,5.155991977038192065e-02,1.184378516430148465e-02,-3.642817436535364384e-02,-9.249366652198506844e-02,-1.550082452893349616e-01,-2.220417060915386709e-01,-2.911211841290711200e-01,-3.593259879843431204e-01,-4.234346635914110757e-01,-4.801189452964798043e-01,-5.261726268048793065e-01,-5.587569112304406893e-01,-5.756387314259697741e-01,-5.753961430854498404e-01,-5.575660872076487751e-01,-5.227148284518218224e-01,-4.724196806268654569e-01,-4.091610812086868276e-01,-3.361351071941292012e-01,-2.570063628316036075e-01,-1.756281237826511632e-01,-9.575949965823829513e-02,-2.080787097303023886e-02,4.638038292192641493e-02,1.036655260756952912e-01,1.496897599459099670e-01,1.838836388158809065e-01,2.064117680152059708e-01,2.180705394808147013e-01,2.201530572959851662e-01,2.142968725293557530e-01,2.023290818278849490e-01,1.861211605284089077e-01,1.674630134985444774e-01,1.479625462543455172e-01,1.289739441924567798e-01,1.115550624678768449e-01,9.645203626688048093e-02,8.410750471808686735e-02,7.468772683793246936e-02,6.812333321207308945e-02,6.415843917235569682e-02,6.240324396825507047e-02,6.238593070357140169e-02,6.360053366667181574e-02,6.554834170587263420e-02,6.777128019352217370e-02,6.987651331892427709e-02,7.155220580133747621e-02,7.257495955013032463e-02,7.280988211217200023e-02,7.220454344776701394e-02,7.077823990669208920e-02,6.860802404790143638e-02,6.581289880497064038e-02,6.253744123560409096e-02,5.893594122295799792e-02,5.515793541353455898e-02,5.133580011070169868e-02,4.757484712375210922e-02,4.394615182730329112e-02,4.048214404757749518e-02,3.717482235197575036e-02,3.397631999114324175e-02,3.080145874241552867e-02,2.753187320847751141e-02,2.402127128371265088e-02,2.010141882568055455e-02,1.558850145452866064e-02,1.028962056850839940e-02,4.009307022157573668e-03,-3.443945461231296551e-03,-1.225104567522781324e-02,-2.257546574795292471e-02,-3.455612729057440380e-02,-4.830001482233448051e-02,-6.387461527050729282e-02,-8.130040413805349198e-02,-1.005437513585315523e-01,-1.215107890957640713e-01,-1.440429244269041398e-01,-1.679147371924775978e-01,-1.928349482577699225e-01,-2.184509825035140795e-01,-2.443574033686795599e-01,-2.701081690137198121e-01,-2.952322595526186699e-01,-3.192517973775814699e-01,-3.417014334646757412e-01,-3.621476042247299132e-01,-3.802062933684829393e-01,-3.955580910347952783e-01,-4.079595480632366433e-01,-4.172500494072199362e-01,-4.233536921455384738e-01,-4.262759625207789838e-01,-4.260953545518911811e-01,-4.229504471203195948e-01,-4.170233498688720175e-01,-4.085208254458148613e-01,-3.976547580773359125e-01,-3.846239090729073329e-01,-3.695990141304531518e-01,-3.527131629763075038e-01,-3.340589863391436598e-01,-3.136934308658497761e-01,-2.916499023245952005e-01,-2.679564734923104430e-01,-2.426578903420926470e-01,-2.158384384090250019e-01,-1.876424594168379922e-01,-1.582894809230181998e-01,-1.280815155925222326e-01,-9.740101800366399165e-02,-6.669913377309098779e-02,-3.647509239070407389e-02,-7.248717016123975426e-03,2.047110551259688493e-02,4.621864476413761746e-02,6.960080244404827365e-02,9.032076598906406406e-02,1.081935312401680893e-01,1.231520542068348933e-01,1.352439644194392832e-01,1.446198295949579493e-01,1.515147412715804331e-01,1.562254308333035913e-01,1.590852492688244468e-01,1.604392215027539426e-01,1.606210927741448247e-01,1.599338833396346804e-01,1.586350090240598587e-01,1.569265527826403661e-01,1.549508259556496292e-01,1.527909682186552043e-01,1.504760205153805597e-01,1.479896703605338426e-01,1.452817088068722451e-01,1.422811445580342837e-01,1.389098874121749705e-01,1.350959397002884088e-01,1.307851218909887869e-01,1.259505049557075318e-01,1.205989189473834766e-01,1.147741411889536406e-01,1.085566240483109013e-01,1.020598887023374812e-01,9.542397731039607700e-02,8.880661234942638371e-02,8.237294172631805245e-02,7.628491248232932564e-02,7.069135253151791198e-02,6.571970107693404783e-02,6.147003011552724244e-02,5.801162636453863902e-02,5.538205664556204028e-02,5.358838538065493345e-02,5.261006702261674522e-02,5.240298554614685606e-02,5.290413443377191965e-02,5.403650172295478005e-02,5.571382630961244781e-02,5.784500438905874897e-02,6.033802728930275083e-02,6.310340472522212030e-02,6.605706166514349609e-02,6.912269885777871936e-02,7.223359463269375669e-02,7.533381892750083686e-02,7.837884278311996189e-02,8.133555922968130347e-02,8.418177452669685368e-02,8.690526735114910417e-02,8.950253744653129118e-02,9.197737157473034886e-02,9.433934434680373016e-02,9.660234728749357569e-02,9.878320631601507362e-02,1.009004127522990929e-01,1.029729634945815153e-01,1.050192887544904585e-01,1.070562444985106582e-01,1.090981607099979905e-01,1.111559604313291094e-01,1.132363906556441147e-01,1.153414271759234111e-01,1.174679258641239815e-01,1.196075887695454698e-01,1.217472930520207691e-01,1.238697951541935793e-01,1.259547763575590285e-01,1.279801469354610866e-01,1.299234850735536129e-01,1.317634637969123390e-01,1.334811197889695100e-01,1.350608411784386953e-01,1.364909914413857117e-01,1.377641350662223430e-01,1.388768773769712139e-01,1.398293672480427907e-01,1.406245346185535927e-01,1.412671477438949830e-01,1.417627817859844208e-01,1.421167917202582343e-01,1.423333782787000179e-01,1.424148263715974694e-01,1.423609826066529194e-01,1.421690229333893163e-01,1.418335430546324993e-01,1.413469831388513009e-01,1.407003743369850124e-01,1.398843668142878138e-01,1.388904682945716340e-01,1.377123929962256743e-01,1.363473987503625862e-01,1.347974774329823711e-01,1.330702610060912616e-01,1.311795146585491567e-01,1.291451136482926754e-01,1.269924428268252581e-01,1.247512144685654772e-01,1.224537657480821301e-01,1.201329652317202762e-01,1.178199175627535206e-01,1.155416943289333531e-01,1.133193280648147616e-01,1.111662842250735334e-01,1.090875764556585997e-01,1.070796180890416366e-01,1.051308127735057218e-01,1.032227887213222894e-01,1.013320891435545434e-01,9.943206463407824880e-02,9.749468910474971828e-02,9.549205025681192782e-02,9.339734765553650564e-02,9.118535118672883855e-02,8.883240427562280606e-02,8.631617228740384729e-02,8.361541546089953925e-02,8.071009363984402163e-02,7.758207972230130034e-02,7.421667066058727780e-02,7.060494959703762785e-02,6.674689052321006177e-02,6.265493344271139131e-02,5.835761964028353399e-02,5.390278546092510531e-02,4.935978321419155768e-02,4.482023447141619127e-02,4.039692160240913876e-02,3.622058013513517610e-02,3.243455519574016399e-02,2.918751188635350033e-02,2.662461701728877084e-02,2.487780974956673580e-02,2.405592763081981778e-02,2.423553848762155169e-02,2.545334279845050743e-02,2.770095537525103097e-02,3.092275113827414046e-02,3.501726985344007226e-02,3.984242326256059313e-02,4.522444563988730487e-02,5.097019573338221199e-02,5.688208219797149384e-02,6.277457325934650278e-02,6.849098255421647019e-02,7.391900527035130675e-02,7.900332029853678051e-02,8.375350058288701105e-02,8.824554352286641257e-02,9.261562701028215605e-02,9.704526346981295903e-02,1.017378243007952682e-01,1.068873224895210416e-01,1.126412494504950429e-01,1.190600940697540966e-01,1.260769054461367555e-01,1.334608727550948282e-01,1.407893157484753632e-01,1.474325857346832080e-01,1.525560433148254458e-01,1.551424371323181228e-01,1.540366698478014551e-01,1.480131760802563812e-01,1.358640571504613481e-01,1.165038462154700249e-01,8.908446799342166489e-02,5.311179976221701987e-02,8.553471176513421925e-03,-4.407356208159418642e-02,-1.036472777701599735e-01,-1.684272013705252480e-01,-2.360914065132707629e-01,-3.038280302762140228e-01,-3.684803506371062687e-01,-4.267386841003535380e-01,-4.753664883801936858e-01,-5.114427853399938773e-01,-5.325990773135443890e-01,-5.372270657631353918e-01,-5.246343623503701981e-01,-4.951293622054679933e-01,-4.500233502292145249e-01,-3.915469753510983919e-01,-3.226882127938686118e-01,-2.469682691909990124e-01,-1.681789278988178038e-01,-9.010830638469408127e-02,-1.628145314557554596e-02,5.026180929389115204e-02,1.071356245976252397e-01,1.527142803100187962e-01,1.861733795038206796e-01,2.074693056523604084e-01,2.172648042635873800e-01,2.168117665460229382e-01,2.078043495112436023e-01,1.922164760662123939e-01,1.721375830126015138e-01,1.496192565449460110e-01,1.265431897289137075e-01,1.045179461739038085e-01,8.480872216626045290e-02,6.830110251943838362e-02,5.549701930914817394e-02,4.653890818723627198e-02,4.125647137303062317e-02,3.922950201246879626e-02,3.985986667485073159e-02,4.244591555375708258e-02,4.625320907742728332e-02,5.057643389052424859e-02,5.478866631541581822e-02,5.837566286564328799e-02,6.095450703573093709e-02,6.227754359739206408e-02,6.222387697584896155e-02,6.078163146619320473e-02,5.802459500049930718e-02,5.408681273117445232e-02,4.913823663691026938e-02,4.336378028482301694e-02,3.694720425247026430e-02,3.006030614571515713e-02,2.285703378324367013e-02,1.547147561204047575e-02,8.018275515657473373e-03,5.939164536590928190e-04,-6.722463606707300421e-03,-1.386956823479158427e-02,-2.080597757674405857e-02,-2.751340016162082125e-02,-3.400048167563242407e-02,-4.030639454241134040e-02,-4.650346559586917422e-02,-5.269821095277996137e-02,-5.903030366491364422e-02,-6.566919132583066976e-02,-7.280829848685919925e-02,-8.065697244723718518e-02,-8.943053165447296948e-02,-9.933892614642844676e-02,-1.105746065528617206e-01,-1.233002324611356393e-01,-1.376368596703376468e-01,-1.536532513826379120e-01,-1.713569575454038652e-01,-1.906877719130757598e-01,-2.115140769070787408e-01,-2.336324063573320675e-01,-2.567703022439893346e-01,-2.805922445538477361e-01,-3.047081514300631899e-01,-3.286837577433101565e-01,-3.520521509571093999e-01,-3.743258881099894020e-01,-3.950093820214745644e-01,-4.136115297408167191e-01,-4.296587631771808802e-01,-4.427087630203226376e-01,-4.523649660588776045e-01,-4.582917254289380904e-01,-4.602295963895486341e-01,-4.580097831910335260e-01,-4.515663826668421255e-01,-4.409448015976287216e-01,-4.263047100008848234e-01,-4.079161891351927860e-01,-3.861483505482417034e-01,-3.614505911353340095e-01,-3.343277047893803977e-01,-3.053111252787346630e-01,-2.749293941693673471e-01,-2.436812865590406441e-01,-2.120147287184925289e-01,-1.803137260214106585e-01,-1.488942003664360803e-01,-1.180082338939178466e-01,-8.785502402972136804e-02,-5.859605501219272705e-02,-3.037164316438033598e-02,-3.316088073202869135e-03,2.243091882985195906e-02,4.671830121662026714e-02,6.938383168384525124e-02,9.026041191557158949e-02,1.091871862740629862e-01,1.260233866692243854e-01,1.406623148989385452e-01,1.530429568352427994e-01,1.631573608752772964e-01,1.710528680940903989e-01,1.768292568558119671e-01,1.806316362193249037e-01,1.826403910800018515e-01,1.830596504546957992e-01,1.821056747287040922e-01,1.799963114080480875e-01,1.769423261514021517e-01,1.731410430887441454e-01,1.687723784105371605e-01,1.639970616526717218e-01,1.589566354053649488e-01,1.537747201367400673e-01,1.485590245394211306e-01,1.434036526107768383e-01,1.383913723625099790e-01,1.335956317215701294e-01,1.290822078589116684e-01,1.249104438505679593e-01,1.211340621876498547e-01,1.178015593462588134e-01,1.149561937428061342e-01,1.126355910304060598e-01,1.108710090125626518e-01,1.096863290648900646e-01,1.090968714248573279e-01,1.091081664053839828e-01,1.097148463530809165e-01,1.108998425064561810e-01,1.126340633890094284e-01,1.148766884256823551e-01,1.175761350848378850e-01,1.206716659863556473e-01,1.240955165965034468e-01,1.277753627080768228e-01,1.316369171976217445e-01,1.356064457434765225e-01,1.396130165227430497e-01,1.435903448157086482e-01,1.474781549764772604e-01,1.512230527485130815e-01,1.547789708305059575e-01,1.581073069134290021e-01,1.611769023778516219e-01,1.639640027676674827e-01,1.664522992482140029e-01,1.686330849377309093e-01,1.705054883914884911e-01,1.720766851010787912e-01,1.733619483917245019e-01,1.743843897183680880e-01,1.751742562251486779e-01,1.757676978212304175e-01,1.762049816738552599e-01,1.765282112477541132e-01,1.767786891434225960e-01,1.769941353298327413e-01,1.772060227456817849e-01,1.774373108350999206e-01,1.777008385714902716e-01,1.779985824236579306e-01,1.783218988403514615e-01,1.786527662274989825e-01,1.789659297740642252e-01,1.792317462089014768e-01,1.794194388742327007e-01,1.795004213362736412e-01,1.794513414165901100e-01,1.792565393547184693e-01,1.789096945907017178e-01,1.784145369191741104e-01,1.777845981199722702e-01,1.770420633166987778e-01,1.762158422155373494e-01,1.753390243121346059e-01,1.744459161094849831e-01,1.735688828532149230e-01,1.727352257792255097e-01,1.719643110500300998e-01,1.712651277929812810e-01,1.706343998496863690e-01,1.700553259538112871e-01,1.694969906443495322e-01,1.689144765424075989e-01,1.682497079604879375e-01,1.674330515337729974e-01,1.663856838705146668e-01,1.650227126665921029e-01,1.632570144553310287e-01,1.610037318814367402e-01,1.581853492427442998e-01,1.547372237166479425e-01,1.506133795478583060e-01,1.457922738476915003e-01,1.402821332091989670e-01,1.341253686025505598e-01,1.274015267509688853e-01,1.202282408403470837e-01,1.127597032634647806e-01,1.051822994119393506e-01,9.770722170460080513e-02,9.056013699741319312e-02,8.396830822131125249e-02,7.814594517635087279e-02,7.327891289918557483e-02,6.951016631569097159e-02,6.692733876405146387e-02,6.555379308844637432e-02,6.534421067467630073e-02,6.618550312961404836e-02,6.790348533268461551e-02,7.027530923141148134e-02,7.304710632139300996e-02,7.595567656105751964e-02,7.875251620874477998e-02,8.122812384733769930e-02,8.323441522873095688e-02,8.470317705130792074e-02,8.565872466260290863e-02,8.622324600818460916e-02,8.661369653175007843e-02,8.712956053669085321e-02,8.813131803354878890e-02,9.001004758371175529e-02,9.314924306248414942e-02,9.788061065825508222e-02,1.044363213681704233e-01,1.129008884440669130e-01,1.231664607460324079e-01,1.348957924566234201e-01,1.474973767944937619e-01,1.601171285635520358e-01,1.716504939513392725e-01,1.807779048291859036e-01,1.860250584267533203e-01,1.858476126788845828e-01,1.787376190621338956e-01,1.633465123717242895e-01,1.386169574154316186e-01,1.039135956225334528e-01,5.914105085157049524e-02,4.836737203446642153e-03,-5.777370231303211034e-02,-1.267689488769367934e-01,-1.995802822704134671e-01,-2.730990880848654934e-01,-3.438417406648839880e-01,-4.081638621634502417e-01,-4.625096292343023885e-01,-5.036760666550195165e-01,-5.290680706661994304e-01,-5.369182271979942023e-01,-5.264471087607773825e-01,-4.979448847141687007e-01,-4.527632701859720665e-01,-3.932169660692986790e-01,-3.224043447467491719e-01,-2.439665762204652477e-01,-1.618110846929497471e-01,-7.982805861250204249e-02,-1.627437991616666191e-03,6.968099559080154215e-02,1.316488573426675690e-01,1.825840436928143351e-01,2.215790465035074597e-01,2.484786848569590645e-01,2.637977934923992351e-01,2.686022214619895876e-01,2.643676286371373640e-01,2.528301732762561760e-01,2.358415453801460948e-01,2.152383240623822747e-01,1.927327607360136419e-01,1.698291905188255013e-01,1.477676262669948559e-01,1.274938628380314631e-01,1.096536904924049483e-01,9.460759064700310916e-02,8.246152676263526771e-02,7.310909549936599194e-02,6.628031565108924439e-02,6.159265127859514521e-02,5.860042970708163185e-02,5.683955228615535787e-02,5.586522689998740798e-02,5.528129990381970560e-02,5.476056708756330688e-02,5.405615038724737725e-02,5.300460770109867437e-02,5.152187979662495310e-02,4.959346498736448561e-02,4.726035416963859925e-02,4.460227436190707800e-02,4.171970965432029999e-02,3.871603176817545872e-02,3.568090958200755003e-02,3.267599498192025331e-02,2.972370345982525142e-02,2.679971645246883791e-02,2.382962416837849928e-02,2.068990414613310763e-02,1.721319762398919664e-02,1.319760734495511317e-02,8.419496591138678210e-03,2.649018739500776098e-03,-4.332645474203193625e-03,-1.271560303545892640e-02,-2.264457006459538735e-02,-3.420476472907133664e-02,-4.741191824123441867e-02,-6.220775647352426441e-02,-7.846190189765890610e-02,-9.598052520177768887e-02,-1.145212747301487255e-01,-1.338131383981532585e-01,-1.535791225774094937e-01,-1.735591415953450234e-01,-1.935303925291117777e-01,-2.133227351598447341e-01,-2.328271514817376042e-01,-2.519961607795123126e-01,-2.708360299302899898e-01,-2.893916185461747892e-01,-3.077255941065752398e-01,-3.258944275388617751e-01,-3.439239563667723099e-01,-3.617873309016671479e-01,-3.793878188047139499e-01,-3.965482658072536637e-01,-4.130081061975009460e-01,-4.284278773047759392e-01,-4.424004331180934058e-01,-4.544676163289437243e-01,-4.641410399112119722e-01,-4.709257296946156024e-01,-4.743455218498554560e-01,-4.739691649392528960e-01,-4.694360063979001740e-01,-4.604800002494288114e-01,-4.469506558036789867e-01,-4.288295413861287764e-01,-4.062410908832857492e-01,-3.794567055745863282e-01,-3.488914554995174999e-01,-3.150930461452458031e-01,-2.787231451623922718e-01,-2.405316866361238981e-01,-2.013253738788801095e-01,-1.619321953485314824e-01,-1.231642171053091150e-01,-8.578113126676271960e-02,-5.045702585410392210e-02,-1.775263650237926538e-02,1.190504326686701170e-02,3.823448600180856527e-02,6.110211505250030817e-02,8.051580308945015252e-02,9.661044247659138218e-02,1.096272967182271019e-01,1.198892333499961549e-01,1.277740330809910840e-01,1.336878055661235853e-01,1.380402021027866410e-01,1.412226926735002663e-01,1.435907461373735761e-01,1.454503681218179967e-01,1.470491345580514919e-01,1.485716119135750135e-01,1.501388674946008972e-01,1.518116303270082013e-01,1.535965521057165439e-01,1.554549297080367321e-01,1.573131828549663158e-01,1.590743352776185782e-01,1.606297311379990267e-01,1.618702374855829906e-01,1.626962443680274317e-01,1.630258804937793626e-01,1.628010141691058343e-01,1.619908016172702803e-01,1.605927647729829821e-01,1.586316056939304497e-01,1.561561653497002544e-01,1.532350805836804331e-01,1.499517607801334751e-01,1.463992835525170233e-01,1.426757004935233775e-01,1.388800698906385023e-01,1.351093264849000941e-01,1.314558976656061418e-01,1.280058177204527192e-01,1.248370078992862009e-01,1.220174040927322484e-01,1.196027357003535546e-01,1.176339688446026988e-01,1.161346655089641605e-01,1.151086958510117025e-01,1.145388087639129387e-01,1.143864997558810409e-01,1.145934495447901436e-01,1.150845983959129099e-01,1.157727177395241475e-01,1.165641646262926129e-01,1.173653606690461121e-01,1.180894298569133694e-01,1.186623749282322698e-01,1.190281915336792173e-01,1.191524242022807545e-01,1.190238462804332903e-01,1.186541641433249972e-01,1.180758613973066778e-01,1.173384747434325637e-01,1.165037097709785974e-01,1.156398614852350987e-01,1.148160124079591476e-01,1.140964536762713311e-01,1.135357202520347331e-01,1.131745556322390628e-01,1.130370302981019287e-01,1.131289392933582383e-01,1.134375066509286240e-01,1.139323360275979052e-01,1.145674728903028350e-01,1.152843854120879918e-01,1.160156291108406790e-01,1.166889352833599403e-01,1.172314564983370916e-01,1.175739120585114900e-01,1.176543972133738958e-01,1.174216466276806342e-01,1.168375735629473000e-01,1.158789438757554524e-01,1.145380921661763030e-01,1.128226487292048746e-01,1.107543189957205937e-01,1.083668344843620457e-01,1.057032634091405604e-01,1.028129177501772573e-01,9.974811536905377196e-02,9.656105070226989051e-02,9.330099913673213508e-02,9.001203329626829286e-02,8.673137073035436240e-02,8.348840899464372856e-02,8.030444151102200667e-02,7.719299080046035377e-02,7.416065036329499982e-02,7.120829685088592154e-02,6.833251963973316356e-02,6.552711238099623303e-02,6.278448090738525389e-02,6.009684790376133845e-02,5.745717713138585175e-02,5.485979081176282912e-02,5.230070160240252175e-02,4.977771722424507300e-02,4.729039696384094993e-02,4.483994202564529907e-02,4.242908538381132133e-02,4.006201592874451822e-02,3.774433445326248748e-02,3.548300228015960345e-02,3.328621212511918837e-02,3.116309163365045889e-02,2.912315044999632188e-02,2.717540471260984289e-02,2.532715456546827740e-02,2.358244281756404978e-02,2.194027812510094058e-02,2.039275730361546357e-02,1.892326476511910910e-02,1.750496112770063423e-02,1.609979521458192869e-02,1.465827770796577709e-02,1.312023224877041649e-02,1.141668518853789990e-02,9.472970332282310002e-03,7.213019120845230725e-03,4.564691567020752461e-03,1.465888400701619715e-03,-2.128922715955619549e-03,-6.242227714992085869e-03,-1.086756693592176928e-02,-1.596479426127191820e-02,-2.145707973688988635e-02,-2.723019846348111866e-02,-3.313454430118756289e-02,-3.899013426013334810e-02,-4.459463193625000377e-02,-4.973412982353748318e-02,-5.419611428902787464e-02,-5.778372821152707312e-02,-6.033019042653801900e-02,-6.171207688265086672e-02,-6.186015370422394410e-02,-6.076659233113099884e-02,-5.848768096852364345e-02,-5.514154320757042732e-02,-5.090083703433244400e-02,-4.598087791034943111e-02,-4.062404792336424264e-02,-3.508166873746770831e-02,-2.959469998377492819e-02,-2.437467444675180811e-02,-1.958621982483860907e-02,-1.533238339857248556e-02,-1.164381315245122811e-02,-8.472689133161320774e-03,-5.692154962057747319e-03,-3.101861261519175267e-03,-4.400703982638393130e-04,2.597454140218787011e-03,6.331875785161974329e-03,1.106957609393479855e-02,1.706541234974540827e-02,2.448268804441120633e-02,3.335226431825542848e-02,4.353389560125148910e-02,5.468342199180630664e-02,6.622980799581973388e-02,7.736609934789684395e-02,8.705810352213541603e-02,9.407392354978454108e-02,9.703634447939218921e-02,9.449847492049377740e-02,8.504102200526889033e-02,6.738723063737094010e-02,4.052901505729208237e-02,3.855376359863188496e-03,-4.272789597635530401e-02,-9.869969029346414846e-02,-1.628591337983686660e-01,-2.333073501875502775e-01,-3.074851098063466903e-01,-3.822719380589383320e-01,-4.541465222348665676e-01,-5.194014430231863599e-01,-5.743981907591605429e-01,-6.158420787644275363e-01,-6.410519633069483580e-01,-6.481974327143092962e-01,-6.364769819201182566e-01,-6.062149900938802460e-01,-5.588629491522684178e-01,-4.969006813310899995e-01,-4.236450468289657545e-01,-3.429852404324419402e-01,-2.590732471235421830e-01,-1.760034524171305570e-01,-9.751555674809796181e-02,-2.674985790664868510e-02,3.392501920869966936e-02,8.300263567719944058e-02,1.198486030921964984e-01,1.446393898936629563e-01,1.582453862567306524e-01,1.620763950617977456e-01,1.579080602736863959e-01,1.477061986116651182e-01,1.334632260244141000e-01,1.170574405317481165e-01,1.001422830492257887e-01,8.406918021166442934e-02,6.984441990777312537e-02,5.811788434101839568e-02,4.919945784262617222e-02,4.309756629745953999e-02,3.957357133818799333e-02,3.820557566484866080e-02,3.845550667442927673e-02,3.973402834447534865e-02,4.145877891637927970e-02,4.310254755050102471e-02,4.422920508588674277e-02,4.451642175151188097e-02,4.376536688136193481e-02,4.189861106767012872e-02,3.894825461436404734e-02,3.503682010887018694e-02,3.035364369980550134e-02,2.512940149626590597e-02,1.961107971500531538e-02,1.403922598204195710e-02,8.628786146483878247e-03,3.554300438454940578e-03,-1.060246272797814651e-03,-5.147016477667810605e-03,-8.695733095621631034e-03,-1.175146492314156285e-02,-1.440941410786422336e-02,-1.680734685899592726e-02,-1.911628655396901619e-02,-2.153006362945417834e-02,-2.425430713606093608e-02,-2.749546755364082329e-02,-3.145046393485151359e-02,-3.629753136863075186e-02,-4.218879113337697939e-02,-4.924496479271994742e-02,-5.755249976792421035e-02,-6.716316888980132516e-02,-7.809595702456115229e-02,-9.034077175829820228e-02,-1.038632565449137124e-01,-1.186098196541518768e-01,-1.345119942240215194e-01,-1.514894307263732753e-01,-1.694511386663698771e-01,-1.882949525072577512e-01,-2.079055229162492247e-01,-2.281513769906641231e-01,-2.488817120060302646e-01,-2.699235567761397170e-01,-2.910797425166921637e-01,-3.121278066096097592e-01,-3.328196145895206959e-01,-3.528812872558972358e-01,-3.720130879076097297e-01,-3.898892608391117953e-01,-4.061582841057186366e-01,-4.204444250849413423e-01,-4.323517250129392808e-01,-4.414715183232632012e-01,-4.473943030492240625e-01,-4.497262535927335492e-01,-4.481099807863098139e-01,-4.422484020280735284e-01,-4.319299048058292123e-01,-4.170524786662305194e-01,-3.976442356891914942e-01,-3.738777883287931481e-01,-3.460763297866090160e-01,-3.147099644241234673e-01,-2.803818152799044672e-01,-2.438045576651259039e-01,-2.057690733732776001e-01,-1.671076670391827279e-01,-1.286546149401013861e-01,-9.120676337887545504e-02,-5.548662425837743578e-02,-2.211012373438164813e-02,8.439060897104007364e-03,3.582686232496726242e-02,5.987656413195761862e-02,8.056630061557358558e-02,9.801665287186070441e-02,1.124696899983778364e-01,1.242616229443491427e-01,1.337917118601119892e-01,1.414901684687885353e-01,1.477875775843391082e-01,1.530879172957489986e-01,1.577466855307139426e-01,1.620550326530796059e-01,1.662302260927073505e-01,1.704122799461369742e-01,1.746661921118494720e-01,1.789889465809663405e-01,1.833202513564384795e-01,1.875558837518412902e-01,1.915624959539810324e-01,1.951927832418472175e-01,1.983000181417279573e-01,2.007510880331117020e-01,2.024373299491875333e-01,2.032826327438856107e-01,2.032484768491598925e-01,2.023358056930309734e-01,2.005838597052890526e-01,1.980663306389749967e-01,1.948853823630662119e-01,1.911642110517273452e-01,1.870388713107952183e-01,1.826500764126595122e-01,1.781356008370909849e-01,1.736237863835684014e-01,1.692284946134347268e-01,1.650456737985408484e-01,1.611515348658926483e-01,1.576021774403312536e-01,1.544343940626546341e-01,1.516673226910349448e-01,1.493046165490288235e-01,1.473368441240902327e-01,1.457439019966972893e-01,1.444973022942110386e-01,1.435622721789815426e-01,1.428996650800688495e-01,1.424677246506541040e-01,1.422237578470527952e-01,1.421257628765162928e-01,1.421340262677397992e-01,1.422126600752834091e-01,1.423310054169857342e-01,1.424647914082097511e-01,1.425969170281994880e-01,1.427177244825792168e-01,1.428246614004448356e-01,1.429212866480443767e-01,1.430156546598553013e-01,1.431182027657472156e-01,1.432393479645847900e-01,1.433870580978905684e-01,1.435646858572081075e-01,1.437693365728296424e-01,1.439909836832321266e-01,1.442124580006216572e-01,1.444103311054714678e-01,1.445566032003564594e-01,1.446210065791762311e-01,1.445736630604358419e-01,1.443877994315762581e-01,1.440422335086920247e-01,1.435233890628002940e-01,1.428266669599811967e-01,1.419570781816568428e-01,1.409291232432839103e-01,1.397659773942732386e-01,1.384981058327986458e-01,1.371614788595930390e-01,1.357955756396853619e-01,1.344413555780508696e-01,1.331393437658675016e-01,1.319279311631652851e-01,1.308419416399833612e-01,1.299114756697865580e-01,1.291610097510950128e-01,1.286087118477878821e-01,1.282659229684989244e-01,1.281367513840750982e-01,1.282177313178297084e-01,1.284975159632925634e-01,1.289566047530827930e-01,1.295671407486163884e-01,1.302928473956830868e-01,1.310891972599782518e-01,1.319039144342274428e-01,1.326779072351486621e-01,1.333467118573951615e-01,1.338425032130768910e-01,1.340966948871039621e-01,1.340431022571814124e-01,1.336215797328512700e-01,1.327819692661513784e-01,1.314881240880442226e-01,1.297217133420335844e-01,1.274854814265207748e-01,1.248056355720075922e-01,1.217330653773341376e-01,1.183431537797832861e-01,1.147340151627808669e-01,1.110230909477851330e-01,1.073421461923092929e-01,1.038308399758368639e-01,1.006291787941148153e-01,9.786929048976425460e-02,9.566705761030595834e-02,9.411420550856794409e-02,9.327143994191113008e-02,9.316316938342696086e-02,9.377423732763377762e-02,9.504894545224988611e-02,9.689248791378218817e-02,9.917475737059708307e-02,1.017363383867422172e-01,1.043963822472375041e-01,1.069619601465676417e-01,1.092384146234799264e-01,1.110401667371755247e-01,1.122013855168150082e-01,1.125858841173293240e-01,1.120955742197629473e-01,1.106767988549788861e-01,1.083239053336757657e-01,1.050795568686323511e-01,1.010315430476527027e-01,9.630622257860031732e-02,9.105914747689908273e-02,8.546376868041484498e-02,7.969931231028233587e-02,7.393890818909419627e-02,6.833888691271491900e-02,6.302991781278945160e-02,5.811040747542840779e-02,5.364235392732188273e-02,4.964966606643127223e-02,4.611881313709297048e-02,4.300156629902866789e-02,4.021953360030816604e-02,3.767016620267073235e-02,3.523391665729004585e-02,3.278224253412501121e-02,3.018615086366321573e-02,2.732495674312647796e-02,2.409488489640801770e-02,2.041709195988534661e-02,1.624464766800461438e-02,1.156799639153494735e-02,6.418434493390520051e-03,8.691926566207347493e-04,-4.966185904797550815e-03,-1.093832746975733489e-02,-1.686932639576244758e-02,-2.256258275773114635e-02,-2.781465656874905490e-02,-3.242839231453942955e-02,-3.622639837212395658e-02,-3.906387498136441871e-02,-4.083978178602470227e-02,-4.150542212058956626e-02,-4.106969064123068558e-02,-3.960046997445074157e-02,-3.722194681690628448e-02,-3.410791642210513064e-02,-3.047142344799698074e-02,-2.655132106991820243e-02,-2.259650872624471146e-02,-1.884873750075050092e-02,-1.552496367268751259e-02,-1.280029354843371589e-02,-1.079259554404904051e-02,-9.549853644673558101e-03,-9.041297723193154889e-03,-9.153272661613875288e-03,-9.690699372933545691e-03,-1.038482732655400184e-02,-1.090776182614746487e-02,-1.089394855784770952e-02,-9.968395416923993280e-03,-7.780903040680700600e-03,-4.044977659422303168e-03,1.420548788050476213e-03,8.649814170603266350e-03,1.749135061664674681e-02,2.757632323943578698e-02,3.829755266738575636e-02,4.880330911450098813e-02,5.800953930382560242e-02,6.463345115430926824e-02,6.725019642138357900e-02,6.437275824642152422e-02,5.455311649411626052e-02,3.650043163191585283e-02,9.209516892776135194e-03,-2.790952881114096285e-02,-7.491171490961739954e-02,-1.312201826426075968e-01,-1.955648929086745980e-01,-2.659691237179775958e-01,-3.397934115939867938e-01,-4.138422715168996180e-01,-4.845330530735211250e-01,-5.481191518272962027e-01,-6.009523924055695243e-01,-6.397628358891628286e-01,-6.619296333038375835e-01,-6.657147823784727025e-01,-6.504333765162835235e-01,-6.165392964154030597e-01,-5.656137971960056854e-01,-5.002550839458825838e-01,-4.238784297843364302e-01,-3.404471235542673724e-01,-2.541628659543412327e-01,-1.691487062816914300e-01,-8.915739488516190303e-02,-1.733315846428778312e-02,4.395366145494807031e-02,9.319026313283745866e-02,1.297251587188950062e-01,1.537028696558387086e-01,1.659463860751779485e-01,1.678068401602095805e-01,1.609993185986539899e-01,1.474409712435945652e-01,1.291036297282339429e-01,1.078889469341567514e-01,8.553024917020857210e-02,6.352222812178690003e-02,4.307740058326698512e-02,2.510681702460808989e-02,1.022157851198407345e-02,-1.248856509292094186e-03,-9.225889134628064911e-03,-1.384283509920687313e-02,-1.540183909800251806e-02,-1.433012481461196953e-02,-1.113833749169566498e-02,-6.382931850933806599e-03,-6.337607542153192441e-04,5.552693127026699094e-03,1.165457539279440152e-02,1.720094947903104410e-02,2.178389435660695039e-02,2.506725270750333190e-02,2.679278230832854782e-02,2.678424257989063875e-02,2.494963694474863769e-02,2.128149353321164700e-02,1.585478590816179895e-02,8.821956381714556386e-03,4.045599684217304759e-04,-9.118709704966180066e-03,-1.942748846998540099e-02,-3.017819430373954587e-02,-4.102462422339672732e-02,-5.163960888210689798e-02,-6.173647533020402978e-02,-7.108898311293075645e-02,-7.954839633506148588e-02,-8.705644458104698502e-02,-9.365311242762251742e-02,-9.947847035190432452e-02,-1.047680951466628263e-01,-1.098419981053095212e-01,-1.150873651754230065e-01,-1.209358067189498648e-01,-1.278362100352676278e-01,-1.362246729382546595e-01,-1.464933468108743364e-01,-1.589602962676594788e-01,-1.738426448286297110e-01,-1.912352711871710964e-01,-2.110970953182344234e-01,-2.332465021107181236e-01,-2.573666825641149902e-01,-2.830206932843403744e-01,-3.096749934495406920e-01,-3.367293009002341742e-01,-3.635499636150419933e-01,-3.895037437336300035e-01,-4.139889777028250561e-01,-4.364615005842564788e-01,-4.564534683483092437e-01,-4.735841849274047277e-01,-4.875630788523120374e-01,-4.981858905177145580e-01,-5.053257851868083739e-01,-5.089214432177726621e-01,-5.089642128941269661e-01,-5.054861947997433269e-01,-4.985507238176946077e-01,-4.882461892735203146e-01,-4.746835466942840309e-01,-4.579972875296647317e-01,-4.383491097444630058e-01,-4.159331356075373076e-01,-3.909813033870057630e-01,-3.637675357224812167e-01,-3.346094451449564411e-01,-3.038666549528737937e-01,-2.719352721940871409e-01,-2.392385995757109474e-01,-2.062147167202711406e-01,-1.733019910944904318e-01,-1.409238250804897841e-01,-1.094739829378360285e-01,-7.930368990242039895e-02,-5.071142452264591760e-02,-2.393601845890620805e-02,8.466260754189658400e-04,2.352320599686508196e-02,4.403941168081478008e-02,6.239369090859651912e-02,7.862923710285334156e-02,9.282511405743555655e-02,1.050873290421251299e-01,1.155404586998470262e-01,1.243202063254859879e-01,1.315671018175856022e-01,1.374214629577910352e-01,1.420196783354597536e-01,1.454918024910627494e-01,1.479603591728279877e-01,1.495401440003818749e-01,1.503387274176181121e-01,1.504573039223605357e-01,1.499915279930261747e-01,1.490320244448524456e-01,1.476643536810943458e-01,1.459683344421600637e-01,1.440167582716984085e-01,1.418736517611335346e-01,1.395923394033009024e-01,1.372136212039687664e-01,1.347643982088073955e-01,1.322570520949263861e-01,1.296898141412833605e-01,1.270482539341599160e-01,1.243078934434985600e-01,1.214378230022996330e-01,1.184050778094101058e-01,1.151794422823149144e-01,1.117382970571369621e-01,1.080711140621012090e-01,1.041832339408507169e-01,1.000986160581578688e-01,9.586132272451813874e-02,9.153557817160321020e-02,8.720432564321677071e-02,8.296629146297589130e-02,7.893165184205511165e-02,7.521648544820387638e-02,7.193628346919188343e-02,6.919888181584650522e-02,6.709727673205864718e-02,6.570287572638078277e-02,6.505979864577360328e-02,6.518084694772927068e-02,6.604566902596989419e-02,6.760144677836825433e-02,6.976612916043992141e-02,7.243390052789591693e-02,7.548227868016756104e-02,7.878006279050085714e-02,8.219532626946596254e-02,8.560275513820528315e-02,8.888981593914571655e-02,9.196144193277161483e-02,9.474311527101260400e-02,9.718238152043487399e-02,9.924895662025223775e-02,1.009336691863644969e-01,1.022465169534038376e-01,1.032141064822266752e-01,1.038767027606280202e-01,1.042850605876082387e-01,1.044971630401096419e-01,1.045749654244289978e-01,1.045812344037822111e-01,1.045765705786970701e-01,1.046166981148135555e-01,1.047500951967738070e-01,1.050160304037676406e-01,1.054430678358107554e-01,1.060481043420399422e-01,1.068359948827777850e-01,1.077997986753209958e-01,1.089216402036702197e-01,1.101741336625684797e-01,1.115222768977417872e-01,1.129256890988758755e-01,1.143410486031104650e-01,1.157245809074363002e-01,1.170344473929268436e-01,1.182328903451965035e-01,1.192880033563572667e-01,1.201750238148146382e-01,1.208770871793191509e-01,1.213854351974978790e-01,1.216991217232558098e-01,1.218243002058819330e-01,1.217732004290188047e-01,1.215629081486820362e-01,1.212140528091668612e-01,1.207494893707950351e-01,1.201930346617881423e-01,1.195682917253453326e-01,1.188975733906679072e-01,1.182009238869589085e-01,1.174952367621825838e-01,1.167934770989054460e-01,1.161040324070663349e-01,1.154302352619765298e-01,1.147701167375164699e-01,1.141164574078209204e-01,1.134571975794672755e-01,1.127762489362389986e-01,1.120547178767448138e-01,1.112725104176669338e-01,1.104102439646209299e-01,1.094513471694855966e-01,1.083841912125388524e-01,1.072040709446551998e-01,1.059148481531349550e-01,1.045300828199311749e-01,1.030735064576687732e-01,1.015787269881053001e-01,1.000880929369532407e-01,9.865068592160568250e-02,9.731945652459833562e-02,9.614757307386923024e-02,9.518412018525979068e-02,9.446936722780459317e-02,9.402992315649567889e-02,9.387419064177662809e-02,9.398860573401704444e-02,9.433517020353084093e-02,9.485072836793384532e-02,9.544830270197261768e-02,9.602059943239908690e-02,9.644555954118240459e-02,9.659359968474164060e-02,9.633599383614925571e-02,9.555371085608950488e-02,9.414595279726703514e-02,9.203763190976804731e-02,8.918508269799617361e-02,8.557944177463795710e-02,8.124735728929161072e-02,7.624900311445065304e-02,7.067371990103960000e-02,6.463390090890423767e-02,5.825790581512384214e-02,5.168278866399799581e-02,4.504749517166852651e-02,3.848698506421447535e-02,3.212753180598742347e-02,2.608328366175954177e-02,2.045404529147984082e-02,1.532414863566853441e-02,1.076221365232448574e-02,6.821548728604931791e-03,3.540911208560907145e-03,9.453475043448393567e-04,-9.531367025361822676e-04,-2.155264350531128914e-03,-2.674634383935621529e-03,-2.538322958880664948e-03,-1.787809491916282460e-03,-4.799642246644522312e-04,1.312298807236026224e-03,3.500206160168287117e-03,5.980696886634838220e-03,8.639887999406438424e-03,1.135878263967776344e-02,1.402129929598484523e-02,1.652434061358717954e-02,1.878922051236234930e-02,2.077339007073970845e-02,2.248110409766182829e-02,2.397149414491378527e-02,2.536248330031253689e-02,2.682910150657450907e-02,2.859503798354978005e-02,3.091669797883742077e-02,3.405960737110608899e-02,3.826770979622599184e-02,4.372688978784261549e-02,5.052488194306609809e-02,5.861052880327790454e-02,6.775605360394904020e-02,7.752653140384989372e-02,8.726098442506841080e-02,9.606941471756315354e-02,1.028495566577642822e-01,1.063261433743396128e-01,1.051140239239049118e-01,9.780456857149835703e-02,8.307253293246492920e-02,5.979805011363566181e-02,2.719587505067599595e-02,-1.505833827837547989e-02,-6.671680383260240876e-02,-1.268765515682208356e-01,-1.939376226725069985e-01,-2.656140426568439072e-01,-3.390058311862436669e-01,-4.107352152108784127e-01,-4.771435457043775030e-01,-5.345378199203619785e-01,-5.794681539928646652e-01,-6.090111962382289690e-01,-6.210305060582992365e-01,-6.143843677150714333e-01,-5.890549806082867601e-01,-5.461804661079365797e-01,-4.879819368718350536e-01,-4.175905973867222176e-01,-3.387925729711711575e-01,-2.557197429161430779e-01,-1.725213227982697051e-01,-9.305206973376581314e-02,-2.060867823475622321e-02,4.226268978358872774e-02,9.387575834578062994e-02,1.334294794475593959e-01,1.609578547045976138e-01,1.772193033725492639e-01,1.835440923721036177e-01,1.816590113526269923e-01,1.735070789980639183e-01,1.610773639110977262e-01,1.462566051780443133e-01,1.307106722773772600e-01,1.158003423432006490e-01,1.025326335994372756e-01,9.154617134635160969e-02,8.312685950357937004e-02,7.724851379373440241e-02,7.363207008347205651e-02,7.181647564257054306e-02,7.123435167184122285e-02,7.128592463041191762e-02,7.140549652783778622e-02,7.111579296840078723e-02,7.006683385883330506e-02,6.805746422698738529e-02,6.503929048363660259e-02,6.110436933718615959e-02,5.645942457760388250e-02,5.139044664849327232e-02,4.622212671797359951e-02,4.127663563976418509e-02,3.683583118345601370e-02,3.311020726892874300e-02,3.021694623280862801e-02,2.816840867484822486e-02,2.687135714787572752e-02,2.613622113641361419e-02,2.569485398658531358e-02,2.522458705442197704e-02,2.437599425765226910e-02,2.280164159864727508e-02,2.018319113749150046e-02,1.625453467663114104e-02,1.081912271400866862e-02,3.760288758992463148e-03,-4.955912859184358893e-03,-1.528511197359093930e-02,-2.711536745265856474e-02,-4.028281307539118700e-02,-5.459039416769468495e-02,-6.982771284442609860e-02,-8.579004601052477030e-02,-1.022948454669174584e-01,-1.191944154025779412e-01,-1.363839193886187684e-01,-1.538043386701331561e-01,-1.714404417193774455e-01,-1.893141958167323391e-01,-2.074743318777337586e-01,-2.259829634146597876e-01,-2.449002798294150074e-01,-2.642684068449812074e-01,-2.840955626066948847e-01,-3.043416320259058616e-01,-3.249062260258445134e-01,-3.456201825659653837e-01,-3.662413018000038045e-01,-3.864548873133028528e-01,-4.058793899789702175e-01,-4.240771296600929219e-01,-4.405697225311793197e-01,-4.548574948560107356e-01,-4.664418458407105228e-01,-4.748492591817654040e-01,-4.796554772234683517e-01,-4.805082599115570452e-01,-4.771471696636750415e-01,-4.694189739809601081e-01,-4.572875546808015113e-01,-4.408376433595808663e-01,-4.202722206435272612e-01,-3.959039575647747000e-01,-3.681415755825292457e-01,-3.374723920626028217e-01,-3.044425379103941065e-01,-2.696363439134655815e-01,-2.336561956571837906e-01,-1.971038062927938372e-01,-1.605634461720321648e-01,-1.245873027082521900e-01,-8.968289438530542557e-02,-5.630235498998667487e-02,-2.483343415170089635e-02,4.407794903082198901e-03,3.118232261753584034e-02,5.533130493299794062e-02,7.677642985258854857e-02,9.551718736606845672e-02,1.116249082845293394e-01,1.252337392620118672e-01,1.365290217477739543e-01,1.457337822245038106e-01,1.530941953394411859e-01,1.588649561168641866e-01,1.632955034221904300e-01,1.666179726320184129e-01,1.690376134968970268e-01,1.707261947029436455e-01,1.718186543149460010e-01,1.724129789516013200e-01,1.725730335371871427e-01,1.723338367771314328e-01,1.717085970228191538e-01,1.706967007757159149e-01,1.692917966217046821e-01,1.674891545473788657e-01,1.652916088496922120e-01,1.627136014763683469e-01,1.597831044723771743e-01,1.565414759331537897e-01,1.530415511015969787e-01,1.493444541676050563e-01,1.455157165209620962e-01,1.416212986548412156e-01,1.377240429419931411e-01,1.338809483474565631e-01,1.301414766792485800e-01,1.265469013975197843e-01,1.231305299212917953e-01,1.199185037128363135e-01,1.169308288179090743e-01,1.141823144862852135e-01,1.116831827722134657e-01,1.094392313789578353e-01,1.074515578590183734e-01,1.057159635819631682e-01,1.042222367616428835e-01,1.029535570198562844e-01,1.018862632674156499e-01,1.009901795687748877e-01,1.002296071728605992e-01,9.956498410358090301e-02,9.895511234211827600e-02,9.835977962299462252e-02,9.774256958953168872e-02,9.707365579277338341e-02,9.633239395523691961e-02,9.550954329276409305e-02,9.460895283946213485e-02,9.364854937455509287e-02,9.266047310958479277e-02,9.169023348504659610e-02,9.079479844582999393e-02,9.003958095731273703e-02,8.949434522304278161e-02,8.922812899191802372e-02,8.930337871851351528e-02,8.976962609021633954e-02,9.065718387425171498e-02,9.197146956617062441e-02,9.368862848641525132e-02,9.575308629923992565e-02,9.807750813510882071e-02,1.005454062328596798e-01,1.030163695221311959e-01,1.053336345017119591e-01,1.073335062023922787e-01,1.088559787354704267e-01,1.097557952094303513e-01,1.099131294828910310e-01,1.092430764399357074e-01,1.077032079669916348e-01,1.052985801889664980e-01,1.020837464405578016e-01,9.816152533769624544e-02,9.367848751831348020e-02,8.881735307648792876e-02,8.378672246733916140e-02,7.880877740830780076e-02,7.410576568181131973e-02,6.988621259764886406e-02,6.633187685356287111e-02,6.358648081036871735e-02,6.174717138823213741e-02,6.085947554661745584e-02,6.091618921349402360e-02,6.186021195070535994e-02,6.359089191692740561e-02,6.597307784374932538e-02,6.884786451338159585e-02,7.204398753616063356e-02,7.538893693726272938e-02,7.871905189358478772e-02,8.188806929236989995e-02,8.477379041140579996e-02,8.728269550265825572e-02,8.935248401856440981e-02,9.095265421550728646e-02,9.208335181017641979e-02,9.277279727414834698e-02,9.307363515927069564e-02,9.305853957342445637e-02,9.281536982483613862e-02,9.244211342957661670e-02,9.204179213981415753e-02,9.171744907196696661e-02,9.156728638826061584e-02,9.167998704136420818e-02,9.213023798637136330e-02,9.297448706295856347e-02,9.424701853910183447e-02,9.595651605554433861e-02,9.808337324670224344e-02,1.005780813433668347e-01,1.033610455287347768e-01,1.063241483533771126e-01,1.093342932677421886e-01,1.122390339194189179e-01,1.148742331182199122e-01,1.170735044134512126e-01,1.186789763264915337e-01,1.195527011101786413e-01,1.195878374268563304e-01,1.187186115505197981e-01,1.169280450785711994e-01,1.142525518136082163e-01,1.107827473573901322e-01,1.066601489378418005e-01,1.020698211991712401e-01,9.722939863993311504e-02,9.237525232393438424e-02,8.774684592177116327e-02,8.357052734083643408e-02,8.004410338982113904e-02,7.732351122872802018e-02,7.551270133142491681e-02,7.465748730094355634e-02,7.474365850271136313e-02,7.569919194120949824e-02,7.740003468224862515e-02,7.967870686595308893e-02,8.233489200048142720e-02,8.514719310549682951e-02,8.788529269731126803e-02,9.032183327644677240e-02,9.224342689425588104e-02,9.346030901340697528e-02,9.381426800869907545e-02,9.318459537521715796e-02,9.149190524549953574e-02,8.869976908824192541e-02,8.481421350944343129e-02,7.988124182851671917e-02,7.398265570932327506e-02,6.723055210333900300e-02,5.976093366920889882e-02,5.172689081599871064e-02,4.329179937962009117e-02,3.462294431395439992e-02,2.588593240962803327e-02,1.724018725731138457e-02,8.835713113919939701e-03,8.111647040186555080e-04,-6.706921838667469910e-03,-1.360406394224666568e-02,-1.977739613299383387e-02,-2.513537185624858949e-02,-2.959805846003452784e-02,-3.309834200051890718e-02,-3.558416970834783755e-02,-3.702174802799585579e-02,-3.739940554881630158e-02,-3.673164410746848629e-02,-3.506276392437313039e-02,-3.246938944712599029e-02,-2.906126298638272640e-02,-2.497981146760765853e-02,-2.039419902473734933e-02,-1.549481255350349841e-02,-1.048435278493805613e-02,-5.566900862322201118e-03,-9.354952035603852911e-04,3.241112317475054044e-03,6.831744950329768709e-03,9.755276469139243303e-03,1.199137666476000202e-02,1.358857413275439859e-02,1.466867142560204090e-02,1.542656441573436385e-02,1.612457754607894006e-02,1.708055713972206693e-02,1.864920151918892169e-02,2.119647712703083553e-02,2.506748182701832792e-02,3.054875631642040359e-02,3.782678020404912217e-02,4.694517136477843744e-02,5.776386750753764038e-02,6.992422075527764125e-02,8.282437716826189511e-02,9.560943454233584993e-02,1.071805735679128846e-01,1.162265676200738979e-01,1.212797659518944637e-01,1.207968341075942448e-01,1.132622951530875832e-01,9.731037118878566039e-02,7.185796135899026604e-02,3.623905768150252615e-02,-9.671196688691194310e-03,-6.535589950166986739e-02,-1.295924561700270428e-01,-2.004372293667660287e-01,-2.752677966389701636e-01,-3.508874543128246426e-01,-4.236909515017341366e-01,-4.898839425690491023e-01,-5.457419341244575950e-01,-5.878883603591104068e-01,-6.135667483193629756e-01,-6.208796684224759943e-01,-6.089680990870253163e-01,-5.781093563181501915e-01,-5.297196277989673074e-01,-4.662575488347380781e-01,-3.910367880712509736e-01,-3.079665515572243550e-01,-2.212474530608612988e-01,-1.350548427291914100e-01,-5.324169542259900995e-02,2.091122647733363593e-02,8.487788813268290489e-02,1.369914487806207504e-01,1.764692794829255118e-01,2.033652144011694196e-01,2.184618712948845909e-01,2.231198596944059254e-01,2.191024995854871094e-01,2.083944175639037555e-01,1.930303388144563592e-01,1.749470029446255070e-01,1.558669713285585345e-01,1.372187341581702080e-01,1.200934529846285903e-01,1.052352582310144141e-01,9.305950164493340115e-02,8.369185838600336214e-02,7.702069105989539644e-02,7.275552432575498052e-02,7.048560143319865245e-02,6.973397493624966526e-02,7.000410376029707338e-02,7.081728448818572219e-02,7.174036636090494468e-02,7.240408701908977729e-02,7.251302779530684195e-02,7.184862520696004562e-02,7.026689413365616588e-02,6.769253374259853739e-02,6.411092889616759605e-02,5.955927090738608043e-02,5.411765547687243105e-02,4.790062753505056753e-02,4.104928259113262146e-02,3.372374571762984385e-02,2.609566857444886590e-02,1.834033396777947494e-02,1.062803794554429207e-02,3.114613877259387112e-03,-4.068760289471316099e-03,-1.082601790820653456e-02,-1.710618407455025830e-02,-2.291195299654061324e-02,-2.830588761383956431e-02,-3.341336583255027914e-02,-3.842161104785490194e-02,-4.357442868679529263e-02,-4.916258959208839874e-02,-5.551013238685761908e-02,-6.295718737318420355e-02,-7.184024419490189772e-02,-8.247107890631519278e-02,-9.511579293519670242e-02,-1.099755496269779337e-01,-1.271705690247217080e-01,-1.467287151485906771e-01,-1.685795776357056353e-01,-1.925543683051621213e-01,-2.183913323062224576e-01,-2.457458311344625779e-01,-2.742038861972779240e-01,-3.032978390330255958e-01,-3.325228919270634131e-01,-3.613535659213550910e-01,-3.892594359894136491e-01,-4.157197836296456783e-01,-4.402370023318703529e-01,-4.623486922141964439e-01,-4.816384004338566949e-01,-4.977449402673418954e-01,-5.103702018325615430e-01,-5.192853828703425378e-01,-5.243356116784453347e-01,-5.254429634291276630e-01,-5.226078380006211610e-01,-5.159085628879976904e-01,-5.054989640211634550e-01,-4.916036071841677346e-01,-4.745105215110753671e-01,-4.545614527247588965e-01,-4.321399593229356406e-01,-4.076578667309761483e-01,-3.815407091947647378e-01,-3.542128527167245355e-01,-3.260830443998544714e-01,-2.975311769679540586e-01,-2.688970562904982042e-01,-2.404718695371733939e-01,-2.124928539754839252e-01,-1.851413903645010850e-01,-1.585444593460759721e-01,-1.327791770984206587e-01,-1.078799989388933012e-01,-8.384811717595214153e-02,-6.066251711444831107e-02,-3.829203889195964550e-02,-1.670761881087680020e-02,4.106292635050981521e-03,2.414223028408727517e-02,4.336316053547041582e-02,6.169965957705757231e-02,7.905121344975286901e-02,9.529154273264422992e-02,1.102773546299196661e-01,1.238594982517930432e-01,1.358952255845643498e-01,1.462602006867725901e-01,1.548590676708555824e-01,1.616337306961177223e-01,1.665689050882714350e-01,1.696948516104728188e-01,1.710874411120029970e-01,1.708658154048712241e-01,1.691879533020513304e-01,1.662444649695526133e-01,1.622509547006111830e-01,1.574393229837598718e-01,1.520484181469369811e-01,1.463144834026339491e-01,1.404618652948306790e-01,1.346944483334930887e-01,1.291882569953361481e-01,1.240856197023992857e-01,1.194912160223897679e-01,1.154702246863641563e-01,1.120486607959139402e-01,1.092158494466232560e-01,1.069288447644525658e-01,1.051184785856351805e-01,1.036966192790360619e-01,1.025641449606586181e-01,1.016190916888677631e-01,1.007644309471257132e-01,9.991496698083197903e-02,9.900292435956023485e-02,9.798191045306547942e-02,9.682906924776917001e-02,9.554537609767892181e-02,9.415414911141763155e-02,9.269796930378927657e-02,9.123430571996600513e-02,8.983022721910831343e-02,8.855664117037419236e-02,8.748252409781261119e-02,8.666959699330888112e-02,8.616784980224943824e-02,8.601224096476739467e-02,8.622079605018603821e-02,8.679421053765030980e-02,8.771693118557832847e-02,8.895955594695070801e-02,9.048226533907201274e-02,9.223889275798381748e-02,9.418117300456176066e-02,9.626269098423444193e-02,9.844209340564522015e-02,1.006852233845144939e-01,1.029659805731796690e-01,1.052658804391029407e-01,1.075724635390943873e-01,1.098768650511305345e-01,1.121709735699809168e-01,1.144446672973457174e-01,1.166836032276638846e-01,1.188679494293254507e-01,1.209723043439897422e-01,1.229668646735847803e-01,1.248197147168660370e-01,1.264999422987327093e-01,1.279811613248624524e-01,1.292449541361357646e-01,1.302837460773343670e-01,1.311026883561188516e-01,1.317202439879383569e-01,1.321673306597730413e-01,1.324850534498640264e-01,1.327212353618107410e-01,1.329261020603603738e-01,1.331475822652019025e-01,1.334267358565547346e-01,1.337938123382519939e-01,1.342653747366636119e-01,1.348428075863749853e-01,1.355123759178568643e-01,1.362468300626148709e-01,1.370083754237643725e-01,1.377526674252791961e-01,1.384333718534801472e-01,1.390067678662496864e-01,1.394358732976409276e-01,1.396936374997113928e-01,1.397648670271353644e-01,1.396467099774699461e-01,1.393477064954498079e-01,1.388855935019352450e-01,1.382842086039564877e-01,1.375699494110161625e-01,1.367682907540572201e-01,1.359008337629381835e-01,1.349832635263857883e-01,1.340244461233427720e-01,1.330267260694620313e-01,1.319873140308708559e-01,1.309005008117228308e-01,1.297603152805412163e-01,1.285631792141177510e-01,1.273101144299257359e-01,1.260081296758042702e-01,1.246705460660603865e-01,1.233161884895771915e-01,1.219675471145209994e-01,1.206481676637791572e-01,1.193796379026533377e-01,1.181785885415781723e-01,1.170541182048045331e-01,1.160059900770244595e-01,1.150238423103069757e-01,1.140875189148238406e-01,1.131684804745634737e-01,1.122321156262660047e-01,1.112406650749265535e-01,1.101564038691975611e-01,1.089447091140534618e-01,1.075766661113673750e-01,1.060309300074954580e-01,1.042946561029292896e-01,1.023634320297674427e-01,1.002402755363365344e-01,9.793388303353837976e-02,9.545640586401105132e-02,9.282107983674812990e-02,9.004003693435988498e-02,8.712259407331278405e-02,8.407425291904338516e-02,8.089656454714155842e-02,7.758791797825148606e-02,7.414520715589620337e-02,7.056622303415563402e-02,6.685251512502997373e-02,6.301238349677344697e-02,5.906361324173565325e-02,5.503556017043655796e-02,5.097024185499321458e-02,4.692217775615087350e-02,4.295684786464582655e-02,3.914778984893001190e-02,3.557251385830251245e-02,3.230756123781999833e-02,2.942314836081558194e-02,2.697790471536218662e-02,2.501422781003849113e-02,2.355473723883331344e-02,2.260022485775968135e-02,2.212938006814861233e-02,2.210043110715076420e-02,2.245469531205317518e-02,2.312188235664639976e-02,2.402685327329157419e-02,2.509741325527405434e-02,2.627261313065839057e-02,2.751095272878079437e-02,2.879781590103057745e-02,3.015142196876544750e-02,3.162655900056098729e-02,3.331538243524662796e-02,3.534463159325921394e-02,3.786874993469208084e-02,4.105860289782069239e-02,4.508577220422296805e-02,5.010275888769401276e-02,5.621982942503407632e-02,6.347966195201704132e-02,7.183135799407325273e-02,8.110574252009872254e-02,9.099415025883730856e-02,1.010330713081188797e-01,1.105970970839860040e-01,1.189025569796614834e-01,1.250240340403138417e-01,1.279255363699137726e-01,1.265074082719631343e-01,1.196690319212990322e-01,1.063859809684050972e-01,8.579859387323418574e-02,5.730706225547631261e-02,2.066626386217057521e-02,-2.392806318552608003e-02,-7.577135710249685574e-02,-1.336104281850483133e-01,-1.956411303024368498e-01,-2.595509240026668829e-01,-3.226104423402820220e-01,-3.818135391631681808e-01,-4.340597156407743351e-01,-4.763669603767113347e-01,-5.060977795789844969e-01,-5.211774496984488136e-01,-5.202820722760826966e-01,-5.029753293842370576e-01,-4.697769728878403717e-01,-4.221526083092918546e-01,-3.624224919598432182e-01,-2.935959198393249259e-01,-2.191463176247942513e-01,-1.427492143265770841e-01,-6.800977611311329052e-02,1.792388618183328973e-03,6.391622832730364800e-02,1.163113712489481227e-01,1.576992875938167948e-01,1.875827398852296657e-01,2.061911342552830984e-01,2.143754310339641977e-01,2.134693701351400574e-01,2.051341078879778401e-01,1.912016946802601591e-01,1.735299997390003790e-01,1.538783754584261976e-01,1.338099884437902731e-01,1.146236096637958113e-01,9.731492875078165405e-02,8.256523856115524640e-02,7.075367174357004296e-02,6.198806958923822052e-02,5.614900692820543743e-02,5.294144548982644694e-02,5.194887731440014228e-02,5.268555400510577247e-02,5.464335308390523560e-02,5.733087723634076871e-02,6.030340370190492849e-02,6.318322520993263636e-02,6.567071120596255918e-02,6.754704850144607753e-02,6.867008072853916789e-02,6.896494914534716247e-02,6.841134875422330563e-02,6.702917325886735556e-02,6.486415889195826234e-02,6.197487996478150823e-02,5.842212416678471687e-02,5.426130743726188116e-02,4.953820157973889970e-02,4.428786884646598865e-02,3.853635347846429138e-02,3.230439707224785212e-02,2.561224490551980426e-02,1.848450868893017005e-02,1.095405525262518193e-02,3.064004336113611282e-03,-5.132855203521583670e-03,-1.357758214839762528e-02,-2.221144396982310115e-02,-3.098453960142632385e-02,-3.986564521046878640e-02,-4.885193291920046643e-02,-5.797711418683999807e-02,-6.731667588914716505e-02,-7.698916184003727625e-02,-8.715284650824393908e-02,-9.799759870454646804e-02,-1.097321996546400946e-01,-1.225678293128995289e-01,-1.366988377005035060e-01,-1.522822437909276683e-01,-1.694176212786037139e-01,-1.881291137970570460e-01,-2.083512645625097137e-01,-2.299201558452562411e-01,-2.525710390069337286e-01,-2.759431869798555925e-01,-2.995921086659281696e-01,-3.230085559019212904e-01,-3.456430103458105751e-01,-3.669336764389889982e-01,-3.863355405770195761e-01,-4.033478711961609453e-01,-4.175376815727455670e-01,-4.285571647798817052e-01,-4.361538752082027015e-01,-4.401733273583852690e-01,-4.405545327011782253e-01,-4.373196813932938576e-01,-4.305596788736986702e-01,-4.204175907507607945e-01,-4.070722119910738512e-01,-3.907238836448979624e-01,-3.715842788618861636e-01,-3.498712047344113563e-01,-3.258086318693845240e-01,-2.996313092857773031e-01,-2.715925741819067429e-01,-2.419734254728258538e-01,-2.110906743504354921e-01,-1.793020688565376553e-01,-1.470067305463502727e-01,-1.146399832206300706e-01,-8.266253558058317408e-02,-5.154478933082569381e-02,-2.174764378558072253e-02,6.298447181407769435e-03,3.221419042422522805e-02,5.568991225705482995e-02,7.649990452560712084e-02,9.451124281743247812e-02,1.096863191052516173e-01,1.220790618607698608e-01,1.318254691522299793e-01,1.391295701101271098e-01,1.442462405585989149e-01,1.474624404112748755e-01,1.490784288129092805e-01,1.493903673035616997e-01,1.486754695701824891e-01,1.471805344627949985e-01,1.451143444209482825e-01,1.426440570918848794e-01,1.398953882095667067e-01,1.369560959380403398e-01,1.338820463006079875e-01,1.307049836227758832e-01,1.274410643503335328e-01,1.240992406418759547e-01,1.206886904331300470e-01,1.172246639025953385e-01,1.137323332587475699e-01,1.102484752526760037e-01,1.068210615441473194e-01,1.035070523819311833e-01,1.003688537990820584e-01,9.746998572421877727e-02,9.487051338331767281e-02,9.262273218098041050e-02,9.076749505816546215e-02,8.933145944718691445e-02,8.832542535148728280e-02,8.774383923765552429e-02,8.756544486306103159e-02,8.775496899932218320e-02,8.826564295929031911e-02,8.904229236613445120e-02,9.002469114238631498e-02,9.115087959069541335e-02,9.236018933007168752e-02,9.359578824377602635e-02,9.480663966420722899e-02,9.594884611668125229e-02,9.698640912736455899e-02,9.789147988612990903e-02,9.864420234656125219e-02,9.923226224565739884e-02,9.965025295766240243e-02,9.989895337676645004e-02,9.998458835664381095e-02,9.991811524013959056e-02,9.971455671895849970e-02,9.939238252008308905e-02,9.897292797174163381e-02,9.847982475325472995e-02,9.793841073963731325e-02,9.737508688990258177e-02,9.681660294507339615e-02,9.628927957397194481e-02,9.581820675380356422e-02,9.542648553687642365e-02,9.513458988437714647e-02,9.495990931587437733e-02,9.491649523668095612e-02,9.501498719526370318e-02,9.526265602962982748e-02,9.566348027944508725e-02,9.621817278162156373e-02,9.692409080390770870e-02,9.777498854671420880e-02,9.876060112501071353e-02,9.986608139955281682e-02,1.010713417613289256e-01,1.023503790355229232e-01,1.036706801383327492e-01,1.049928166471256613e-01,1.062703348738232162e-01,1.074500339487338280e-01,1.084727034056527095e-01,1.092743725268717492e-01,1.097881103227210248e-01,1.099464018871093018e-01,1.096841017535223062e-01,1.089419169192566011e-01,1.076702980228617934e-01,1.058335218591566901e-01,1.034136439157935100e-01,1.004139036229950571e-01,9.686110135299001722e-02,9.280646528527099204e-02,8.832462175786601200e-02,8.351049661301768179e-02,7.847428938823935995e-02,7.333500004603243916e-02,6.821323682349113293e-02,6.322410985452131538e-02,5.847091312976517019e-02,5.404008001505584274e-02,4.999764677838389876e-02,4.638723777489120459e-02,4.322942997542958410e-02,4.052227263127480827e-02,3.824272140216889576e-02,3.634877890789731114e-02,3.478219735527465079e-02,3.347167310295107862e-02,3.233652427972086296e-02,3.129087057088390800e-02,3.024831974766261852e-02,2.912711095661135730e-02,2.785557956185900907e-02,2.637770674942361074e-02,2.465842062899144954e-02,2.268825072392966977e-02,2.048692674590541982e-02,1.810556418874276208e-02,1.562718672290418220e-02,1.316548034993357541e-02,1.086183300522772406e-02,8.880860869666426516e-03,7.404735705392724229e-03,6.626686198200379407e-03,6.744035294242695100e-03,7.951045960073304178e-03,1.043168285056991079e-02,1.435218046927306743e-02,1.985308622205986251e-02,2.704028101627309333e-02,3.597442988749507964e-02,4.665841850932318791e-02,5.902259577852696226e-02,7.290805105757058868e-02,8.804868312031362276e-02,1.040534433132639103e-01,1.203908147708691728e-01,1.363782255264210097e-01,1.511795344741692637e-01,1.638138198050268501e-01,1.731783413612791311e-01,1.780877255658848413e-01,1.773301874715626225e-01,1.697400550596056545e-01,1.542841143953903038e-01,1.301574761103302946e-01,9.688289513829459465e-02,5.440587575812511067e-02,3.176603312487723263e-03,-5.579105116046351176e-02,-1.208932805019024836e-01,-1.899517882706927563e-01,-2.602778114001103593e-01,-3.287881658665194329e-01,-3.921718982327950243e-01,-4.471000336306341083e-01,-4.904641997893373073e-01,-5.196236088047354595e-01,-5.326353088914361766e-01,-5.284410886842566546e-01,-5.069868428106891756e-01,-4.692567395386048612e-01,-4.172144066168955723e-01,-3.536550663706848896e-01,-2.819841778853250380e-01,-2.059476148355404157e-01,-1.293438850651451311e-01,-5.574934533693762934e-02,1.171698186478796477e-02,7.057007566838292834e-02,1.190671867588751348e-01,1.562464332534831690e-01,1.819015287400807812e-01,1.965035388347051160e-01,2.010835790379768839e-01,1.970914630728468619e-01,1.862448059426943525e-01,1.703813949226806734e-01,1.513251957468121356e-01,1.307735473408285221e-01,1.102102313161722885e-01,9.084641649290507714e-02,7.358913186614288171e-02,5.903500976846387527e-02,4.748561680243604255e-02,3.897977171459209716e-02,3.333782079857834646e-02,3.021285143378231106e-02,2.914419353158375844e-02,2.960919340965752558e-02,3.107005078685208879e-02,3.301340050024068051e-02,3.498122049880300621e-02,3.659249287910457116e-02,3.755578308682592376e-02,3.767349504485846545e-02,3.683898607189053237e-02,3.502798564194787440e-02,3.228587413380408500e-02,2.871236668738312917e-02,2.444503721335238022e-02,1.964293023313640196e-02,1.447126615483482724e-02,9.087975782148746684e-03,3.632533120767213360e-03,-1.782679392334580309e-03,-7.078423445297701844e-03,-1.221215469068723247e-02,-1.717923162990151950e-02,-2.201199393199028409e-02,-2.677694832188626251e-02,-3.157031933343955321e-02,-3.651224667198477852e-02,-4.173995310374484929e-02,-4.740027139029610176e-02,-5.364199887305207137e-02,-6.060862459532392887e-02,-6.843201663798249845e-02,-7.722763238205880565e-02,-8.709169217131766672e-02,-9.810052206339021919e-02,-1.103119306049359788e-01,-1.237680752466183143e-01,-1.384988756098482210e-01,-1.545247600457162751e-01,-1.718575008538348603e-01,-1.904981494252514229e-01,-2.104315784938698697e-01,-2.316177576040690800e-01,-2.539804978831322058e-01,-2.773949029681831990e-01,-3.016750999338382866e-01,-3.265639767187783482e-01,-3.517266184039861687e-01,-3.767489178175095765e-01,-4.011424371398558120e-01,-4.243560166750590112e-01,-4.457938944340879561e-01,-4.648393147119798119e-01,-4.808819306056796861e-01,-4.933469008332475592e-01,-5.017235012261946903e-01,-5.055912554312403939e-01,-5.046419301268598723e-01,-4.986961514130169304e-01,-4.877138282577880846e-01,-4.717979811780239618e-01,-4.511919502065785959e-01,-4.262702968523677249e-01,-3.975240310612715988e-01,-3.655410776208855572e-01,-3.309831055181600701e-01,-2.945599348198979506e-01,-2.570027122565044508e-01,-2.190369711124127705e-01,-1.813566399400401430e-01,-1.446000683059812109e-01,-1.093291593445477328e-01,-7.601266650553611948e-02,-4.501456550205694407e-02,-1.658813247079107822e-02,9.124029690593962738e-03,3.208422204458408200e-02,5.234878901617022462e-02,7.005320176230074580e-02,8.539438685700236065e-02,9.861172099804672853e-02,1.099680863331528591e-01,1.197322286967731908e-01,1.281634092613466724e-01,1.354990217671451225e-01,1.419455047633603750e-01,1.476725621835667246e-01,1.528104643332050261e-01,1.574500592561220991e-01,1.616450690137726520e-01,1.654162390323905274e-01,1.687569149517286482e-01,1.716396223395836029e-01,1.740232196666572917e-01,1.758601917584083074e-01,1.771036581745597804e-01,1.777136949767048890e-01,1.776626125712719717e-01,1.769388978985670935e-01,1.755496167766199545e-01,1.735211823633801553e-01,1.708985253035632534e-01,1.677428380081552872e-01,1.641281896892868020e-01,1.601374001779298228e-01,1.558576062756125424e-01,1.513759514732499756e-01,1.467757842266163015e-01,1.421336719544901983e-01,1.375174366696987893e-01,1.329852998411050202e-01,1.285860956862729942e-01,1.243603858598724687e-01,1.203422017944942995e-01,1.165610713875883248e-01,1.130439665570471819e-01,1.098168411161662972e-01,1.069055090667016539e-01,1.043357279116018804e-01,1.021324798845987814e-01,1.003185652545647566e-01,9.891272021007878334e-02,9.792753763078276830e-02,9.736749658221517667e-02,9.722739226604200369e-02,9.749140222058100269e-02,9.813293177347498508e-02,9.911526421011948584e-02,1.003929182793823760e-01,1.019135112318478725e-01,1.036198618821327910e-01,1.054520595512256353e-01,1.073492724829649692e-01,1.092511611911649028e-01,1.110988771096113603e-01,1.128357414075779885e-01,1.144077910707541057e-01,1.157644300718279201e-01,1.168594165243282135e-01,1.176523425952602925e-01,1.181106260604119079e-01,1.182118546762677830e-01,1.179461575331848255e-01,1.173181894999577729e-01,1.163483542173668339e-01,1.150730416269737238e-01,1.135438367093433987e-01,1.118257805732768007e-01,1.099948049849926723e-01,1.081344526993543720e-01,1.063319932261000828e-01,1.046740774245660810e-01,1.032421414253874292e-01,1.021078472403613852e-01,1.013289058842153922e-01,1.009456469278362523e-01,1.009786654033803383e-01,1.014277936897765020e-01,1.022725223496270680e-01,1.034738458021474961e-01,1.049773556886880593e-01,1.067172679449556877e-01,1.086209683074300381e-01,1.106136086436543403e-01,1.126222897706606746e-01,1.145794271656542795e-01,1.164250102441767992e-01,1.181076210949401212e-01,1.195842543614611675e-01,1.208191526571040370e-01,1.217820183755456143e-01,1.224460625681295378e-01,1.227863885461063509e-01,1.227791725478515755e-01,1.224019956232864081e-01,1.216355086493186993e-01,1.204663942942746785e-01,1.188913543043029070e-01,1.169216352112538576e-01,1.145874498743150449e-01,1.119415867785034518e-01,1.090615366013725357e-01,1.060495976395596091e-01,1.030306212435340429e-01,1.001472898841793552e-01,9.755305280337508989e-02,9.540305928620006204e-02,9.384362025429654475e-02,9.300088944891146681e-02,9.296957548351235390e-02,9.380256260546676605e-02,9.550232155995345973e-02,9.801492837077738218e-02,1.012273782923668319e-01,1.049686893421504785e-01,1.090150463276680359e-01,1.130989607262938706e-01,1.169221346030873826e-01,1.201714346452072840e-01,1.225371177730353589e-01,1.237322146248554938e-01,1.235117885614773897e-01,1.216906733804632296e-01,1.181582899855538465e-01,1.128892848690278422e-01,1.059490328396621994e-01,9.749347665356458692e-02,8.776327114427515119e-02,7.707267175396773085e-02,6.579398281266736481e-02,5.433862723063055677e-02,4.313602631804290544e-02,3.261151288675175064e-02,2.316446375459193033e-02,1.514774580102857399e-02,8.849447647127500760e-03,4.477750730404898849e-03,2.149704760542152371e-03,1.884610005727930387e-03,3.602631596075298731e-03,7.129112023160504713e-03,1.220474614560106488e-02,1.850132526739951822e-02,2.564220932094717423e-02,3.322618447806764685e-02,4.085304815669885820e-02,4.814919566517082694e-02,5.479161287938722619e-02,6.052889643263768132e-02,6.519813352832139197e-02,6.873664117522232386e-02,7.118769972814800728e-02,7.269954938121434007e-02,7.351708498818400328e-02,7.396591297912175067e-02,7.442874490800523157e-02,7.531450945907852690e-02,7.702107563042832894e-02,7.989308657801118263e-02,8.417707373085511757e-02,8.997669540999407578e-02,9.721154670754665605e-02,1.055834339028373647e-01,1.145542135770445530e-01,1.233391886166126244e-01,1.309195727564348433e-01,1.360766469234046538e-01,1.374489233454411485e-01,1.336119272022204818e-01,1.231781639268798578e-01,1.049125783589194838e-01,7.785649629915911141e-02,4.145088197709557998e-02,-4.352000560989360833e-03,-5.900048019250440923e-02,-1.212909200611758942e-01,-1.893614278321374689e-01,-2.607397460866399119e-01,-3.324488532173153210e-01,-4.011681128141753594e-01,-4.634413829993423439e-01,-5.159171388069453412e-01,-5.556002757412794590e-01,-5.800917585747296101e-01,-5.877914423704830860e-01,-5.780417066504807133e-01,-5.511949985194989354e-01,-5.085963834573754561e-01,-4.524816893054369737e-01,-3.858014889901439926e-01,-3.119896057272120160e-01,-2.347007163819890274e-01,-1.575440234222918734e-01,-8.383861570273572206e-02,-1.641158398488582609e-02,4.254669228354635707e-02,9.156311690992084695e-02,1.298984548463407440e-01,1.575060952244681234e-01,1.749437223557450960e-01,1.832514902713776872e-01,1.838114576219316565e-01,1.782026054062551823e-01,1.680640093859923634e-01,1.549760554851579153e-01,1.403663826782975410e-01,1.254439125647603404e-01,1.111612331286023908e-01,9.820302285541741838e-02,8.699630665533540641e-02,7.773720980852907858e-02,7.042852685362477327e-02,6.492277099623022796e-02,6.096622866949381880e-02,5.824063711057049508e-02,5.640016667648117821e-02,5.510228171263681363e-02,5.403176449517040070e-02,5.291776109752179685e-02,5.154417533188212358e-02,4.975409941609484910e-02,4.744922166692783216e-02,4.458529244860738594e-02,4.116477041020619870e-02,3.722773020058139926e-02,3.284200850056701038e-02,2.809340849664066636e-02,2.307658257830881576e-02,1.788698712765318666e-02,1.261408170245548535e-02,7.335758468679520056e-03,2.113856912438344393e-03,-3.009447879072516333e-03,-8.014598557373190518e-03,-1.290711411152589000e-02,-1.771962368894949846e-02,-2.251342408636990144e-02,-2.737937661902459241e-02,-3.243783850417789744e-02,-3.783724545143347939e-02,-4.375095390512719756e-02,-5.037202926943010195e-02,-5.790582951219105934e-02,-6.656046499029578956e-02,-7.653548588700094524e-02,-8.800942035424196008e-02,-1.011270173250398141e-01,-1.159871973027955805e-01,-1.326327483375042970e-01,-1.510427050477929634e-01,-1.711281286350866127e-01,-1.927317104423821870e-01,-2.156312988645575079e-01,-2.395471167248483524e-01,-2.641520926773194833e-01,-2.890844038279621886e-01,-3.139610865064501044e-01,-3.383914836885275612e-01,-3.619893825316837233e-01,-3.843829341971115032e-01,-4.052217993809836272e-01,-4.241813717102695946e-01,-4.409643367520864610e-01,-4.553001780665085207e-01,-4.669435111707894714e-01,-4.756722807607940418e-01,-4.812868627833205570e-01,-4.836109553545092088e-01,-4.824948399166303359e-01,-4.778211924870691130e-01,-4.695131793408039989e-01,-4.575441343773099523e-01,-4.419477356951803104e-01,-4.228273266211583503e-01,-4.003629151545054499e-01,-3.748144849672755408e-01,-3.465205841728739022e-01,-3.158916950018231806e-01,-2.833985403659100566e-01,-2.495561360600875300e-01,-2.149049388175313935e-01,-1.799907768733210178e-01,-1.453453140939562072e-01,-1.114685706894285033e-01,-7.881455218564123455e-02,-4.778044657874741530e-02,-1.869929476265247414e-02,8.164352395502012805e-03,3.261644586166453919e-02,5.453371808813611832e-02,7.386259182464163797e-02,9.061676098779593291e-02,1.048732277439408667e-01,1.167664925638910445e-01,1.264806967881672850e-01,1.342397464384568750e-01,1.402957174120184336e-01,1.449160935074944034e-01,1.483705808316019004e-01,1.509183476275305358e-01,1.527965405899441298e-01,1.542108270317326668e-01,1.553285243159255868e-01,1.562746337489981652e-01,1.571308322737720864e-01,1.579372286464938435e-01,1.586964901639841552e-01,1.593798065197397085e-01,1.599340815638692903e-01,1.602897279983893919e-01,1.603684797566805875e-01,1.600907257188362576e-01,1.593819945330361421e-01,1.581783652520429295e-01,1.564307213029161869e-01,1.541078865547139964e-01,1.511987666829050225e-01,1.477136586217863978e-01,1.436848863544425980e-01,1.391668787697934451e-01,1.342357322399577724e-01,1.289882073724115952e-01,1.235400151321264239e-01,1.180231803765298543e-01,1.125822603586231346e-01,1.073692627388033866e-01,1.025372563096525608e-01,9.823287980480517601e-02,9.458818811350973299e-02,9.171247488801553827e-02,8.968482341133719726e-02,8.854813208224171506e-02,8.830523612662886934e-02,8.891753233362410802e-02,9.030625533401262506e-02,9.235629823338677158e-02,9.492225148723608397e-02,9.783617295614210896e-02,1.009165088610871619e-01,1.039775576199803708e-01,1.068388928653164344e-01,1.093342199698162515e-01,1.113192178096793078e-01,1.126780081437610131e-01,1.133279967361582874e-01,1.132229384624340029e-01,1.123541851606414538e-01,1.107501727368487010e-01,1.084742879488791445e-01,1.056213203327045769e-01,1.023127453558356909e-01,9.869109766299725972e-02,9.491368009331307976e-02,9.114582364343093435e-02,8.755388007616835000e-02,8.429810849987570687e-02,8.152562208907727925e-02,7.936359427037148473e-02,7.791297639122830854e-02,7.724303195106574371e-02,7.738702381011076936e-02,7.833938506935661517e-02,8.005465722237362081e-02,8.244839512284660166e-02,8.540012674760320832e-02,8.875832856932451553e-02,9.234724720093723249e-02,9.597527760540221220e-02,9.944450906849328087e-02,1.025609780521549858e-01,1.051451183789808286e-01,1.070418637523883609e-01,1.081298272073018402e-01,1.083289601155213860e-01,1.076060994793375247e-01,1.059778762517480100e-01,1.035106032295290690e-01,1.003169902023468008e-01,9.654981828286197942e-02,9.239299244590992721e-02,8.805062429094380472e-02,8.373493978855635345e-02,7.965385831367467750e-02,7.599907358161166193e-02,7.293540735968054300e-02,7.059210901091469981e-02,6.905663293927369328e-02,6.837124189729554269e-02,6.853256960407472231e-02,6.949405219491459895e-02,7.117092642583182360e-02,7.344731145241700787e-02,7.618475408521975523e-02,7.923153449597426790e-02,8.243200729717323205e-02,8.563529667892770536e-02,8.870277552152464051e-02,9.151392915895728564e-02,9.397041034864782316e-02,9.599829556778854966e-02,9.754871866731965047e-02,9.859716636664760114e-02,9.914176797635289307e-02,9.920090653485875987e-02,9.881043345819992552e-02,9.802070027640859273e-02,9.689354583736128901e-02,9.549931000602066011e-02,9.391389683440320990e-02,9.221588919110991489e-02,9.048372402351320676e-02,8.879296426735003300e-02,8.721373446952024322e-02,8.580840837002411126e-02,8.462964138200805564e-02,8.371882919369123821e-02,8.310504934180465431e-02,8.280451149015491397e-02,8.282050985443253910e-02,8.314383996291609125e-02,8.375361220486544911e-02,8.461837006406190687e-02,8.569740920371078652e-02,8.694220085138659737e-02,8.829784853339818496e-02,8.970454357374263443e-02,9.109902151819049276e-02,9.241604877446953081e-02,9.358997837570184886e-02,9.455640324157350840e-02,9.525391048784739856e-02,9.562591298982997534e-02,9.562251438823007876e-02,9.520235415379496580e-02,9.433437821107580612e-02,9.299948399438257018e-02,9.119199210485200158e-02,8.892089610619914597e-02,8.621083554371035407e-02,8.310272391613147958e-02,7.965394114278565030e-02,7.593796832855784218e-02,7.204330591996892241e-02,6.807148574130728047e-02,6.413397891832503528e-02,6.034783411945493503e-02,5.682997049875839618e-02,5.369020225731615387e-02,5.102327186480244692e-02,4.890038323170345369e-02,4.736091489686597433e-02,4.640512352800728324e-02,4.598869749019514341e-02,4.601997674637782476e-02,4.636051710335516857e-02,4.682945230033803974e-02,4.721181251422829073e-02,4.727061330260764332e-02,4.676216076417993167e-02,4.545365721722260943e-02,4.314186877701665923e-02,3.967136352557863732e-02,3.495068063044214079e-02,2.896478556480053604e-02,2.178234322847723281e-02,1.355672285998511806e-02,4.520222790769773402e-03,-5.028295266813097991e-03,-1.474145054823520345e-02,-2.424553372825504621e-02,-3.316490135310830312e-02,-4.114650114052613439e-02,-4.788259855230554002e-02,-5.313011112284134890e-02,-5.672537199139971592e-02,-5.859355047371809372e-02,-5.875231589768845075e-02,-5.730963561846871834e-02,-5.445585842200267868e-02,-5.045046838069666001e-02,-4.560412632160464053e-02,-4.025686776204520645e-02,-3.475360023102314067e-02,-2.941831664411237793e-02,-2.452867351801958293e-02,-2.029272810974257907e-02,-1.682965406541601927e-02,-1.415615105148631571e-02,-1.218004181562523137e-02,-1.070222976328835153e-02,-9.427785047972550569e-03,-7.986441135030292876e-03,-5.962216848510181605e-03,-2.931237670752491475e-03,1.493864424425386458e-03,7.615304893332657671e-03,1.560026892142351782e-02,2.543341876282071562e-02,3.687587097938646585e-02,4.943500482062469087e-02,6.234948110070539368e-02,7.459353600860715860e-02,8.490389369266315711e-02,9.183146336256996223e-02,9.381833800870535700e-02,8.929853043284713410e-02,7.681846396308197877e-02,5.517063645759992530e-02,2.353131201490886101e-02,-1.840916311376242231e-02,-7.033644556705330453e-02,-1.312363072182249069e-01,-1.993655872998982004e-01,-2.722802785498439349e-01,-3.469267718358318708e-01,-4.197965052992652102e-01,-4.871374678453794793e-01,-5.452088956538324593e-01,-5.905589574485250459e-01,-6.203002220252271659e-01,-6.323551801274590600e-01,-6.256448295837246931e-01,-6.001977418888482241e-01,-5.571649293130975789e-01,-4.987363617742047728e-01,-4.279667183592160695e-01,-3.485291214347931432e-01,-2.644243004225993454e-01,-1.796772267921153965e-01,-9.805285654169099141e-02,-2.281748492530723260e-02,4.343617794231700857e-02,9.889167795667376526e-02,1.425395929209042067e-01,1.741438506020651367e-01,1.941558680641898849e-01,2.035914059026338596e-01,2.038856676086127362e-01,1.967412308952812827e-01,1.839813436819463244e-01,1.674184134823304970e-01,1.487445621055308309e-01,1.294482184015367243e-01,1.107581018903688458e-01,9.361374858490142947e-02,7.866001702874506063e-02,6.626180501434084102e-02,5.653448522541498072e-02,4.938528342699210344e-02,4.456090952018602197e-02,4.169713360893258919e-02,4.036659782186574619e-02,4.012189431460320976e-02,4.053174995831070743e-02,4.120897538272807331e-02,4.182960827931723330e-02,4.214337096423093759e-02,4.197614718662927985e-02,4.122564931898894253e-02,3.985178467312879697e-02,3.786343159892104071e-02,3.530339895759695978e-02,3.223326849331176885e-02,2.871961715606856716e-02,2.482280248042230408e-02,2.058909496011739060e-02,1.604649268629804171e-02,1.120409979636098619e-02,6.054541308401764285e-03,5.785699789621246043e-04,-5.249169347525882781e-03,-1.145430041136665140e-02,-1.805779297670482078e-02,-2.507273641471289075e-02,-3.250328343851924956e-02,-4.034588295099113264e-02,-4.859257435046271389e-02,-5.723583663679585737e-02,-6.627431193779421970e-02,-7.571865791279845659e-02,-8.559680317371951008e-02,-9.595795217921082587e-02,-1.068747847966985270e-01,-1.184434063407709126e-01,-1.307807235037099780e-01,-1.440190566940649231e-01,-1.582979628105852243e-01,-1.737534489782056046e-01,-1.905050149889325473e-01,-2.086412612986121573e-01,-2.282051077759716384e-01,-2.491799240282180916e-01,-2.714779853052626257e-01,-2.949325485059638985e-01,-3.192944616551584569e-01,-3.442336655912918153e-01,-3.693454004458769369e-01,-3.941605543972549475e-01,-4.181594326774737413e-01,-4.407882159192249016e-01,-4.614774208717628001e-01,-4.796617030751691990e-01,-4.948003296696330544e-01,-5.063976186613589059e-01,-5.140226080998542280e-01,-5.173271850711651521e-01,-5.160618681901636418e-01,-5.100884140243051590e-01,-4.993884350481888612e-01,-4.840672993633253207e-01,-4.643527516976657110e-01,-4.405879741973168784e-01,-4.132192117369996032e-01,-3.827785948285311046e-01,-3.498632941809641794e-01,-3.151124686294691224e-01,-2.791835162010767868e-01,-2.427289455218160918e-01,-2.063748877118931346e-01,-1.707019878770168475e-01,-1.362291993365732368e-01,-1.034008441216218988e-01,-7.257717076772493559e-02,-4.402852184206501596e-02,-1.793313596744863445e-02,5.621431416724137486e-03,2.663331131208677288e-02,4.517788406371119059e-02,6.139624531088240522e-02,7.548119823296545183e-02,8.766164510197138604e-02,9.818639135439691246e-02,1.073083876252516194e-01,1.152703427498951716e-01,1.222924774919336433e-01,1.285629835444916658e-01,1.342315269048053039e-01,1.394059075829692240e-01,1.441517776350813851e-01,1.484951441321060162e-01,1.524272535399621431e-01,1.559113689741239706e-01,1.588909007232393866e-01,1.612983160016678574e-01,1.630642234480005337e-01,1.641260047450961435e-01,1.644353713468961753e-01,1.639642877597570769e-01,1.627088441755785708e-01,1.606908773302851701e-01,1.579573968931890227e-01,1.545781208610820801e-01,1.506416018158685810e-01,1.462505050640255932e-01,1.415165835374726233e-01,1.365558130252979840e-01,1.314840404751269620e-01,1.264133822984651045e-01,1.214494992837259479e-01,1.166897729495372793e-01,1.122223167123618526e-01,1.081256759270054629e-01,1.044690052651102014e-01,1.013124617139887496e-01,9.870752021618771355e-02,9.669691444687140980e-02,9.531394025789165225e-02,9.458094806507182095e-02,9.450700022354198426e-02,9.508487053456732285e-02,9.628778239760449331e-02,9.806646694980687695e-02,1.003472156214212790e-01,1.030315638660506544e-01,1.059980732053655283e-01,1.091064175601518665e-01,1.122036907521053312e-01,1.151325916119988885e-01,1.177409397844223216e-01,1.198918305248428823e-01,1.214736418377991012e-01,1.224090594488268929e-01,1.226622920888292834e-01,1.222437239362798578e-01,1.212114008646072161e-01,1.196689686161488964e-01,1.177599571539400397e-01,1.156586113738597710e-01,1.135577789002444188e-01,1.116546587452632300e-01,1.101354702129174745e-01,1.091602998354871540e-01,1.088495018680557119e-01,1.092730290681972888e-01,1.104439050352701152e-01,1.123166779837022067e-01,1.147911365520813826e-01,1.177209213103492386e-01,1.209260785823329798e-01,1.242081959407494440e-01,1.273665728006597997e-01,1.302138899641873959e-01,1.325900028676303410e-01,1.343727571471811932e-01,1.354850829131084289e-01,1.358980338702180102e-01,1.356298564495506120e-01,1.347415499832642083e-01,1.333296609812654743e-01,1.315172105057291485e-01,1.294436803924714496e-01,1.272549055211823488e-01,1.250935743283974610e-01,1.230908680417782536e-01,1.213596002157686093e-01,1.199890655020952740e-01,1.190416706035052896e-01,1.185513000375356257e-01,1.185232719334333301e-01,1.189356771485519937e-01,1.197418741252322116e-01,1.208739224979557547e-01,1.222467594935793544e-01,1.237629343322296516e-01,1.253177076681374347e-01,1.268042996352075347e-01,1.281190455806522355e-01,1.291662102621869701e-01,1.298622292259354882e-01,1.301391879533579932e-01,1.299474058141062149e-01,1.292570559634204364e-01,1.280588220231536345e-01,1.263636650898919966e-01,1.242018413734042176e-01,1.216213560605343136e-01,1.186860472866555632e-01,1.154734589300047132e-01,1.120725897282510569e-01,1.085815175525901288e-01,1.051048134668738504e-01,1.017505981271675658e-01,9.862706564139821219e-02,9.583831939852434367e-02,9.347944421685454308e-02,9.163088737841404430e-02,9.035242775996971121e-02,8.967724100854392033e-02,8.960676022612820701e-02,9.010712170074583471e-02,9.110793057127940242e-02,9.250387922443203959e-02,9.415943997711220814e-02,9.591649252943074133e-02,9.760439086912835183e-02,9.905166210717880615e-02,1.000982869902597994e-01,1.006073638744179183e-01,1.004749370613492454e-01,9.963691007352397377e-02,9.807227960360545560e-02,9.580238911506604171e-02,9.288643152072632858e-02,8.941391210743127038e-02,8.549511194769360278e-02,8.125072122211350611e-02,7.680175909787159694e-02,7.226071676745561556e-02,6.772460919516434807e-02,6.327034011595636387e-02,5.895250227105638952e-02,5.480347474820175535e-02,5.083546512617354712e-02,4.704399645151741138e-02,4.341226983811433127e-02,3.991584172732903779e-02,3.652712710158524667e-02,3.321935522741939484e-02,2.996973994743579867e-02,2.676175985366086724e-02,2.358655459709306512e-02,2.044351771735412882e-02,1.734019921853805629e-02,1.429162859695218279e-02,1.131914448230922181e-02,8.448786926687820026e-03,5.709288180387576267e-03,3.129698891764752522e-03,7.367141100757222671e-04,-1.448184285432429358e-03,-3.411581508569943438e-03,-5.150713433669558070e-03,-6.675436815029557602e-03,-8.009185658657127366e-03,-9.188493856175133229e-03,-1.026070302885545918e-02,-1.127958580890775150e-02,-1.229880139553194036e-02,-1.336335441656793036e-02,-1.449953452629500553e-02,-1.570414770575927904e-02,-1.693417147215030283e-02,-1.809822417716781123e-02,-1.905138280182445271e-02,-1.959487571311184159e-02,-1.948199413242958020e-02,-1.843120103577038094e-02,-1.614687705309980972e-02,-1.234745510548968146e-02,-6.799901157173425872e-03,6.413450278129756432e-04,9.993676219729120264e-03,2.110729392692511919e-02,3.363180061346392191e-02,4.699260352786444050e-02,6.038123518927547562e-02,7.276322332972268159e-02,8.290627789675833470e-02,8.943032407652447280e-02,9.087934240343892300e-02,8.581314292802269539e-02,7.291518508942296251e-02,5.111047638103707880e-02,1.968560048148473157e-02,-2.159876024091406110e-02,-7.241359541995993909e-02,-1.317967752670259340e-01,-1.981281451783819259e-01,-2.691530102413123848e-01,-3.420592674171135661e-01,-4.136090169579743625e-01,-4.803201541125822205e-01,-5.386876391805121012e-01,-5.854285130048768604e-01,-6.177301108592136991e-01,-6.334782136958747589e-01,-6.314417620681551657e-01,-6.113935745429711632e-01,-5.741521125450539387e-01,-5.215371366724959046e-01,-4.562412395573198221e-01,-3.816286365281156279e-01,-3.014809357509108390e-01,-2.197155141469464279e-01,-1.401045781352047714e-01,-6.602169838492574772e-02,-2.379984499040234402e-04,5.521685277981629170e-02,9.912196870619729983e-02,1.310622510854076439e-01,1.513634806366066232e-01,1.609789709539863334e-01,1.613440160292148873e-01,1.542148556994138997e-01,1.415075074294249169e-01,1.251491521226097969e-01,1.069514387983405423e-01,8.851160970794916261e-02,7.114410761144202011e-02,5.584253394007619720e-02,4.326959948933371825e-02,3.377108875136095034e-02,2.740883006799840066e-02,2.400717749188146025e-02,2.320749627182210409e-02,2.452551675398997183e-02,2.740708821660874789e-02,3.127873259401080241e-02,3.559037971875786410e-02,3.984867441749009864e-02,4.364020107194983844e-02,4.664480904761061225e-02,4.863990346067893072e-02,4.949707332384059577e-02,4.917275905821425624e-02,4.769481483430258045e-02,4.514680484120989906e-02,4.165170296390712651e-02,3.735637193513787618e-02,3.241782261984600677e-02,2.699184697898723492e-02,2.122423023499991207e-02,1.524442006369363181e-02,9.161289728059603468e-03,3.060492012620271741e-03,-2.997133133433234863e-03,-8.976567205869128568e-03,-1.486935896861996641e-02,-2.069423104279747780e-02,-2.649746691373618471e-02,-3.235282831087857303e-02,-3.836064757519927482e-02,-4.464571407040403977e-02,-5.135362982122321229e-02,-5.864543830876826208e-02,-6.669051351463138599e-02,-7.565790799117810828e-02,-8.570656656282150954e-02,-9.697498057805091498e-02,-1.095709560206730299e-01,-1.235621843356625449e-01,-1.389682516142605739e-01,-1.557546374469492290e-01,-1.738291756340306915e-01,-1.930413768502369787e-01,-2.131849091479524616e-01,-2.340033505058818908e-01,-2.551990590020106753e-01,-2.764446840780438452e-01,-2.973965175091132229e-01,-3.177086037839139676e-01,-3.370463498297684990e-01,-3.550983563455666903e-01,-3.715853840469376390e-01,-3.862657587267691595e-01,-3.989370347235605685e-01,-4.094342668544185826e-01,-4.176256802466056794e-01,-4.234068019960887108e-01,-4.266941983246811398e-01,-4.274198596322060228e-01,-4.255270407736630456e-01,-4.209680594510067375e-01,-4.137042463408536763e-01,-4.037079769003246166e-01,-3.909665228218811572e-01,-3.754873410468141381e-01,-3.573043557102995038e-01,-3.364847695311556919e-01,-3.131359516645858543e-01,-2.874119576433408207e-01,-2.595192004530762486e-01,-2.297206995102807903e-01,-1.983382392396497718e-01,-1.657517486368160209e-01,-1.323953031251953183e-01,-9.874932817655750206e-02,-6.532881139809104676e-02,-3.266759160878192347e-02,-1.299109134059221737e-03,2.826559572968095901e-02,5.556134693159472948e-02,8.019192208693690094e-02,1.018504936384119763e-01,1.203350577605288574e-01,1.355569111925540304e-01,1.475411348897772978e-01,1.564191662032716756e-01,1.624145744802754920e-01,1.658238758795559098e-01,1.669945566287241168e-01,1.663024585625092477e-01,1.641304076972989190e-01,1.608495342720541454e-01,1.568042271648629749e-01,1.523011579053211995e-01,1.476023580122611534e-01,1.429219823349388574e-01,1.384261653299351247e-01,1.342352787291447580e-01,1.304279083592859156e-01,1.270459500788564955e-01,1.241003395126159675e-01,1.215770435953762996e-01,1.194430350211768965e-01,1.176520395510086137e-01,1.161498953687786495e-01,1.148794006686684466e-01,1.137845574148657196e-01,1.128141498619288779e-01,1.119246251208445564e-01,1.110822656058422231e-01,1.102646578196382482e-01,1.094614724980416398e-01,1.086745827800564140e-01,1.079175601272481244e-01,1.072145985918779437e-01,1.065989253165919026e-01,1.061107621638644888e-01,1.057949148749490614e-01,1.056980846690315917e-01,1.058660217275030624e-01,1.063406655085518404e-01,1.071574352708563188e-01,1.083428386052907588e-01,1.099125535576889329e-01,1.118701118621214241e-01,1.142062685640041486e-01,1.168990889254650917e-01,1.199147207489670575e-01,1.232087555410050772e-01,1.267280237440848722e-01,1.304126276288964936e-01,1.341980014856064274e-01,1.380168114067401031e-01,1.418005670582183353e-01,1.454809048759420076e-01,1.489905968000438397e-01,1.522644192794592732e-01,1.552400662849539037e-01,1.578592976126194369e-01,1.600694776624317917e-01,1.618255844836220814e-01,1.630926646004826341e-01,1.638485915812528948e-01,1.640868746501085440e-01,1.638191785140002965e-01,1.630771754867847700e-01,1.619133667510429808e-01,1.604005794849303057e-01,1.586299559065152964e-01,1.567073770459178894e-01,1.547483887645058620e-01,1.528718115521632004e-01,1.511923213767323027e-01,1.498123914572839499e-01,1.488140835096977421e-01,1.482512642404451575e-01,1.481428888259460896e-01,1.484680284113286397e-01,1.491633129347751108e-01,1.501233985807032267e-01,1.512049285459694803e-01,1.522342141544508198e-01,1.530185155093851668e-01,1.533603740728318177e-01,1.530740026304730217e-01,1.520023446407569589e-01,1.500331439609721984e-01,1.471122739185186101e-01,1.432527073872127688e-01,1.385378917737213889e-01,1.331188965167692251e-01,1.272054205160679241e-01,1.210514271709589168e-01,1.149366842215459594e-01,1.091457781355625600e-01,1.039462805978178112e-01,9.956772431308159865e-02,9.618293523609344753e-02,9.389308361487060106e-02,9.271756369197017844e-02,9.258950249460699833e-02,9.335734917291517443e-02,9.479262694996898331e-02,9.660355560674212250e-02,9.845388390334644524e-02,9.998591582023562407e-02,1.008463809224951074e-01,1.007135023747748187e-01,9.932337953394126950e-02,9.649365576348495344e-02,9.214241740816399295e-02,8.630039791678603689e-02,7.911488167468669341e-02,7.084426509742734746e-02,6.184306454016284815e-02,5.253820470064765602e-02,4.339850754282697370e-02,3.490019212240504098e-02,2.749167872968635504e-02,2.156097347991213845e-02,1.740845970973212836e-02,1.522722507807763512e-02,1.509229612841067256e-02,1.695943585000878745e-02,2.067349360388704912e-02,2.598564725089829580e-02,3.257821638535721154e-02,4.009506121454223249e-02,4.817496781506607623e-02,5.648494319352552473e-02,6.475009662302769198e-02,7.277685237722927858e-02,8.046668060903579278e-02,8.781834099735830179e-02,9.491771504088547529e-02,1.019155097351850947e-01,1.089943065119845927e-01,1.163275048702929609e-01,1.240336050659791717e-01,1.321299385372150803e-01,1.404903457437951808e-01,1.488113879479473212e-01,1.565914463994152461e-01,1.631265042808475729e-01,1.675255231881725426e-01,1.687471219331121153e-01,1.656577599233799158e-01,1.571098634420780848e-01,1.420363871149093460e-01,1.195562907756214099e-01,8.908349208809004938e-02,5.043022476529454567e-02,3.894619740636068306e-03,-4.967801723868810193e-02,-1.088700824225176667e-01,-1.717106645039446766e-01,-2.357434477548728258e-01,-2.981440489756045364e-01,-3.558822454534050772e-01,-4.059191739379096608e-01,-4.454245208925475263e-01,-4.719947646525921581e-01,-4.838514710146815112e-01,-4.799990764067816329e-01,-4.603246909160115252e-01,-4.256279040445043460e-01,-3.775757011852138301e-01,-3.185855271974233904e-01,-2.516472745019697754e-01,-1.801014984272411856e-01,-1.073956063850898535e-01,-3.684159871847465101e-02,2.860203180985437799e-02,8.650529452643110351e-02,1.350855133930444762e-01,1.732640616697040670e-01,2.006624136230259758e-01,2.175451346322989088e-01,2.247217604657494872e-01,2.234216459886693984e-01,2.151560050730690621e-01,2.015800289366894427e-01,1.843657112998586534e-01,1.650932831337509343e-01,1.451663199234038970e-01,1.257528944646608970e-01,1.077527882773837709e-01,9.178884625059309521e-02,7.821910424563927045e-02,6.716534539671040194e-02,5.855323460689079718e-02,5.215910913093622231e-02,4.765880990847469467e-02,4.467454532094593950e-02,4.281659203747829184e-02,4.171755513047903374e-02,4.105783612487513834e-02,4.058181839589159595e-02,4.010502814755381729e-02,3.951314307819697030e-02,3.875418858225238017e-02,3.782557709677436542e-02,3.675781054006885262e-02,3.559668932817110915e-02,3.438577545652993922e-02,3.315066862076414267e-02,3.188639790455115308e-02,3.054892378226145566e-02,2.905139658717147827e-02,2.726543990582014007e-02,2.502733816227805524e-02,2.214862756891850665e-02,1.843023649426163077e-02,1.367900901191520732e-02,7.725187520220510445e-03,4.392437194247859888e-04,-8.253645433313912955e-03,-1.836314824393003864e-02,-2.982883436158943052e-02,-4.252183262888215021e-02,-5.625360114441758930e-02,-7.079154152700713187e-02,-8.588026016461765277e-02,-1.012663111968623852e-01,-1.167234742332845243e-01,-1.320753079502874350e-01,-1.472120387329639291e-01,-1.620996945538596967e-01,-1.767805048932641065e-01,-1.913646980119925456e-01,-2.060147866574299769e-01,-2.209241732449989948e-01,-2.362923884200758828e-01,-2.522994803402924258e-01,-2.690819921904685774e-01,-2.867126212521032835e-01,-3.051850902024872969e-01,-3.244050602025103092e-01,-3.441871885260400221e-01,-3.642578056421028609e-01,-3.842622631174911763e-01,-4.037758437619122232e-01,-4.223172227127073852e-01,-4.393637462545035288e-01,-4.543681345524110959e-01,-4.667765013909260241e-01,-4.760477464134680869e-01,-4.816743843057182395e-01,-4.832047239196189392e-01,-4.802659993639084579e-01,-4.725876029326466776e-01,-4.600230346248601054e-01,-4.425686749936206255e-01,-4.203771591938172403e-01,-3.937631386860677707e-01,-3.631996623121858114e-01,-3.293042618154765622e-01,-2.928149244775398730e-01,-2.545572582177088594e-01,-2.154051263162091168e-01,-1.762377435353363886e-01,-1.378966047457494404e-01,-1.011455977522189853e-01,-6.663723886721904799e-02,-3.488726820197595585e-02,-6.259000352932135580e-03,1.904203694045707856e-02,4.096345800539748228e-02,5.959237557783733652e-02,7.513437408756558356e-02,8.788717301646324642e-02,9.821131476420269513e-02,1.065002454370703594e-01,1.131519702369798569e-01,1.185441011607179518e-01,1.230136368557817605e-01,1.268422892604801622e-01,1.302476560725645549e-01,1.333800725848023616e-01,1.363245868471145428e-01,1.391072067243446786e-01,1.417043799183048403e-01,1.440545927658213321e-01,1.460709995387941829e-01,1.476540969920381585e-01,1.487036123866046777e-01,1.491289553442891602e-01,1.488577769752690294e-01,1.478423680878190594e-01,1.460637993838732607e-01,1.435338510990072924e-01,1.402948889294243773e-01,1.364179101744045219e-01,1.319990105652820711e-01,1.271545242784518359e-01,1.220150918880580637e-01,1.167189342020511361e-01,1.114046616146220359e-01,1.062040218190987567e-01,1.012350642107675280e-01,9.659624948182495008e-02,9.236202940436256947e-02,8.858034583547608198e-02,8.527234777468233051e-02,8.243441625176117782e-02,8.004234626730839797e-02,7.805729540278454059e-02,7.643290129492023854e-02,7.512282100725295453e-02,7.408787437323353930e-02,7.330199368238025925e-02,7.275629713758921535e-02,7.246080427630237353e-02,7.244357577775076273e-02,7.274735550659160166e-02,7.342408230528570112e-02,7.452788542616710366e-02,7.610734662303055009e-02,7.819788104215551205e-02,8.081505384493498090e-02,8.394952297461918955e-02,8.756410335825823288e-02,9.159321145962490140e-02,9.594470267758667403e-02,1.005038894474366423e-01,1.051393499858361280e-01,1.097100193997831014e-01,1.140729984006884912e-01,1.180915137356625400e-01,1.216425044231869146e-01,1.246233694627016941e-01,1.269574797886146578e-01,1.285981271331213538e-01,1.295306668337078415e-01,1.297727255773625243e-01,1.293724923912036306e-01,1.284052762600932374e-01,1.269686647298950977e-01,1.251767196719304198e-01,1.231536773063836299e-01,1.210275811876634772e-01,1.189241911054743361e-01,1.169614084771919554e-01,1.152443678373687025e-01,1.138612822356827869e-01,1.128801016421580178e-01,1.123460400535364889e-01,1.122800368113958669e-01,1.126782303843136684e-01,1.135125294020200987e-01,1.147323538670145943e-01,1.162675749581222190e-01,1.180325977849346064e-01,1.199314177233923168e-01,1.218633630486508218e-01,1.237291435275179319e-01,1.254367753447727385e-01,1.269069503139579058e-01,1.280774538945534391e-01,1.289063027273596451e-01,1.293733637346160537e-01,1.294803336920410941e-01,1.292490994868238374e-01,1.287186537616136495e-01,1.279408839065070969e-01,1.269756546104345296e-01,1.258856437814565299e-01,1.247313653855130211e-01,1.235667366318072835e-01,1.224354461254137105e-01,1.213682747220183045e-01,1.203814218990308937e-01,1.194758016744438128e-01,1.186371994794779283e-01,1.178371355243010565e-01,1.170342714296914582e-01,1.161762262789841210e-01,1.152017226308506281e-01,1.140430397202463336e-01,1.126287880546282955e-01,1.108870245288013229e-01,1.087487011359072608e-01,1.061513942934749766e-01,1.030432075137452941e-01,9.938668417179417902e-02,9.516251290779326188e-02,9.037276209715050523e-02,8.504335379489345870e-02,7.922549576273558991e-02,7.299584163780022117e-02,6.645524132085764424e-02,5.972605983650853406e-02,5.294815742117153778e-02,4.627371233337417011e-02,3.986112144714226702e-02,3.386824085884315716e-02,2.844524615441835352e-02,2.372741113988692183e-02,1.982812792887254580e-02,1.683252006021938169e-02,1.479203309439372678e-02,1.372042096988305634e-02,1.359157304141762890e-02,1.433963036258457252e-02,1.586179720209482738e-02,1.802414010250340953e-02,2.067046623521053700e-02,